# BG ROI:  6.00000,  21.00000 
# BG Params:  20,  10,  20 

1364
5.9954332e+00 1.6443637e+02
6.0064332e+00 1.5741306e+02
6.0174332e+00 1.4914736e+02
6.0284332e+00 1.6698047e+02
6.0394332e+00 1.2478569e+02
6.0504332e+00 1.8339543e+02
6.0614332e+00 1.3709068e+02
6.0724332e+00 1.5143746e+02
6.0834332e+00 1.5024876e+02
6.0944332e+00 1.1858585e+02
6.1054332e+00 1.2843134e+02
6.1164332e+00 1.0921879e+02
6.1274332e+00 1.2255672e+02
6.1384332e+00 1.0455034e+02
6.1494332e+00 1.0964308e+02
6.1604332e+00 1.2371056e+02
6.1714332e+00 1.0049374e+02
6.1824332e+00 8.4852079e+01
6.1934332e+00 9.7140639e+01
6.2044332e+00 1.0782415e+02
6.2154332e+00 1.1469282e+02
6.2264332e+00 1.2466812e+02
6.2374332e+00 9.7741464e+01
6.2484332e+00 1.0557228e+02
6.2594332e+00 1.0472964e+02
6.2704332e+00 1.1198765e+02
6.2814332e+00 9.7863733e+01
6.2924332e+00 6.7335598e+01
6.3034332e+00 8.5289423e+01
6.3144332e+00 9.6117362e+01
6.3254332e+00 9.9488844e+01
6.3364332e+00 9.0667705e+01
6.3474332e+00 6.7692643e+01
6.3584332e+00 6.0612155e+01
6.3694332e+00 7.0051965e+01
6.3804332e+00 7.7416056e+01
6.3914332e+00 6.8904896e+01
6.4024332e+00 7.4741579e+01
6.4134332e+00 6.3378247e+01
6.4244332e+00 6.7254383e+01
6.4354332e+00 5.6515327e+01
6.4464332e+00 2.5901449e+01
6.4574332e+00 4.2589606e+01
6.4684332e+00 4.5910064e+01
6.4794332e+00 4.4321943e+01
6.4904332e+00 6.8792683e+01
6.5014332e+00 8.1595537e+01
6.5124332e+00 9.3075055e+01
6.5234332e+00 8.7946460e+01
6.5344332e+00 7.7592175e+01
6.5454332e+00 5.5373941e+01
6.5564332e+00 6.5008490e+01
6.5674332e+00 6.0569431e+01
6.5784332e+00 4.3719912e+01
6.5894332e+00 5.3060131e+01
6.6004332e+00 2.6304804e+01
6.6114332e+00 3.3316202e+01
6.6224332e+00 6.1252008e+01
6.6334332e+00 2.4904130e+01
6.6444332e+00 4.0252845e+01
6.6554332e+00 4.0734556e+01
6.6664332e+00 1.9913085e+01
6.6774332e+00 3.8827161e+01
6.6884332e+00 5.6880769e+01
6.6994332e+00 2.3756173e+01
6.7104332e+00 6.4501961e+01
6.7214332e+00 3.5895222e+01
6.7324332e+00 4.6547980e+01
6.7434332e+00 2.5622766e+01
6.7544332e+00 1.9207989e+01
6.7654332e+00 9.0094836e+00
6.7764332e+00 5.3403213e+01
6.7874332e+00 5.4080728e+01
6.7984332e+00 3.7807416e+01
6.8094332e+00 4.2299410e+01
6.8204332e+00 2.8941533e+01
6.8314332e+00 2.0636764e+01
6.8424332e+00 6.0774301e+01
6.8534332e+00 6.1943959e+01
6.8644332e+00 5.3355519e+01
6.8754332e+00 3.1687753e+01
6.8864332e+00 2.6959659e+01
6.8974332e+00 5.7428824e+00
6.9084332e+00 2.4850359e+01
6.9194332e+00 2.3184592e+01
6.9304332e+00 -1.2675387e+01
6.9414332e+00 2.1626113e+01
6.9524332e+00 3.5727589e+01
6.9634332e+00 4.0526090e+01
6.9744332e+00 9.8085834e+00
6.9854332e+00 1.6490795e+01
6.9964332e+00 2.1880290e+01
7.0074332e+00 1.9812713e+01
7.0184332e+00 2.6436800e+01
7.0294332e+00 -4.3090266e+00
7.0404332e+00 1.0438799e+01
7.0514332e+00 6.9470894e+00
7.0624332e+00 1.4019470e+01
7.0734332e+00 8.7123163e+00
7.0844332e+00 7.0342823e+00
7.0954332e+00 1.3756104e+01
7.1064332e+00 3.8155799e+01
7.1174332e+00 2.2643293e+01
7.1284332e+00 1.4306366e+01
7.1394332e+00 1.0197458e+01
7.1504332e+00 1.3786879e+01
7.1614332e+00 2.1469251e+01
7.1724332e+00 2.3681950e+01
7.1834332e+00 1.1000030e+01
7.1944332e+00 -2.9841044e-01
7.2054332e+00 8.8611974e+00
7.2164332e+00 1.8674815e+01
7.2274332e+00 9.1693470e+00
7.2384332e+00 5.8087383e+00
7.2494332e+00 1.7725568e+01
7.2604332e+00 4.3414557e+00
7.2714332e+00 -1.9581940e+00
7.2824332e+00 1.5470895e+01
7.2934332e+00 1.1354780e+01
7.3044332e+00 -5.6935541e-02
7.3154332e+00 1.2353602e+01
7.3264332e+00 1.8701741e+01
7.3374332e+00 1.8587702e+01
7.3484332e+00 2.1673548e+01
7.3594332e+00 5.3716372e+00
7.3704332e+00 4.4542500e+00
7.3814332e+00 3.4692600e+01
7.3924332e+00 8.4803449e+00
7.4034332e+00 7.5524751e+00
7.4144332e+00 2.3817335e+01
7.4254332e+00 1.4914953e+01
7.4364332e+00 1.6716930e+01
7.4474332e+00 2.7473148e-01
7.4584332e+00 2.9923646e+01
7.4694332e+00 3.7260307e+01
7.4804332e+00 1.4513321e+01
7.4914332e+00 1.4046907e+01
7.5024332e+00 2.4152970e+01
7.5134332e+00 2.0477467e+01
7.5244332e+00 4.0562006e+00
7.5354332e+00 1.1917156e+01
7.5464332e+00 2.1507122e+01
7.5574332e+00 1.7452882e+01
7.5684332e+00 1.7027743e+01
7.5794332e+00 1.7635766e+01
7.5904332e+00 1.2018786e+01
7.6014332e+00 1.0932401e+01
7.6124332e+00 1.9639114e+01
7.6234332e+00 1.0827150e+01
7.6344332e+00 2.7457671e+01
7.6454332e+00 2.2502578e+01
7.6564332e+00 2.3677200e+01
7.6674332e+00 3.8888598e+01
7.6784332e+00 -3.5934040e+00
7.6894332e+00 1.8344853e+01
7.7004332e+00 3.2802061e+01
7.7114332e+00 2.3868226e+01
7.7224332e+00 1.1741253e+00
7.7334332e+00 8.9699830e+00
7.7444332e+00 3.5540405e+01
7.7554332e+00 -1.5252630e+01
7.7664332e+00 1.3734300e+01
7.7774332e+00 1.2648773e+01
7.7884332e+00 1.9908637e+01
7.7994332e+00 -9.7524665e+00
7.8104332e+00 1.2793689e+01
7.8214332e+00 2.4207443e+01
7.8324332e+00 1.9584705e+01
7.8434332e+00 2.7578850e+01
7.8544332e+00 1.4233687e+01
7.8654332e+00 -8.6518159e+00
7.8764332e+00 -2.3534647e+00
7.8874332e+00 5.5569958e+00
7.8984332e+00 1.8685304e+01
7.9094332e+00 2.3049221e+01
7.9204332e+00 3.3530769e+01
7.9314332e+00 2.7669825e+01
7.9424332e+00 7.9428661e+00
7.9534332e+00 6.3405829e+00
7.9644332e+00 1.3742078e+01
7.9754332e+00 2.0758006e+01
7.9864332e+00 1.2581683e+01
7.9974332e+00 1.6669868e+01
8.0084332e+00 1.8180453e+01
8.0194332e+00 1.8344098e+01
8.0304332e+00 2.4634279e+01
8.0414332e+00 1.7294441e+01
8.0524332e+00 3.4559418e+00
8.0634332e+00 -9.7604942e-01
8.0744332e+00 6.3716783e-01
8.0854332e+00 2.2283155e+00
8.0964332e+00 1.0772269e+00
8.1074332e+00 1.7073357e+01
8.1184332e+00 2.9902070e+01
8.1294332e+00 1.2104335e+01
8.1404332e+00 6.7259189e+00
8.1514332e+00 2.4849000e+01
8.1624332e+00 2.9910219e+01
8.1734332e+00 3.6464277e+01
8.1844332e+00 3.5177364e+01
8.1954332e+00 1.9950803e+01
8.2064332e+00 1.4131267e+01
8.2174332e+00 4.8776189e+00
8.2284332e+00 1.5615753e+01
8.2394332e+00 2.1726203e+01
8.2504332e+00 3.1401374e+01
8.2614332e+00 3.9129481e+01
8.2724332e+00 3.0915070e+01
8.2834332e+00 2.2631885e+01
8.2944332e+00 2.0166903e+01
8.3054332e+00 4.0691349e+01
8.3164332e+00 3.8404829e+01
8.3274332e+00 3.7080378e+01
8.3384332e+00 3.3670833e+01
8.3494332e+00 2.8273658e+01
8.3604332e+00 2.8666199e+01
8.3714332e+00 2.4050611e+01
8.3824332e+00 2.1810968e+01
8.3934332e+00 1.0788525e+01
8.4044332e+00 1.9956846e+01
8.4154332e+00 3.0477255e+01
8.4264332e+00 1.1241438e+00
8.4374332e+00 -1.0437124e+01
8.4484332e+00 1.3326902e+01
8.4594332e+00 7.6350453e+00
8.4704332e+00 2.0078915e+01
8.4814332e+00 9.9382712e+00
8.4924332e+00 4.9084134e+00
8.5034332e+00 -2.5976100e+00
8.5144332e+00 9.7378885e+00
8.5254332e+00 -7.6435743e+00
8.5364332e+00 2.4280307e+01
8.5474332e+00 1.3909189e+01
8.5584332e+00 1.2556904e+01
8.5694332e+00 1.4657116e+01
8.5804332e+00 1.7840196e+01
8.5914332e+00 2.6901667e+01
8.6024332e+00 1.0409497e+01
8.6134332e+00 2.1740766e+01
8.6244332e+00 4.1965224e+00
8.6354332e+00 1.9484712e+01
8.6464332e+00 1.6671320e+01
8.6574332e+00 1.4558772e+01
8.6684332e+00 1.0486361e+01
8.6794332e+00 1.3845488e+01
8.6904332e+00 9.2419256e+00
8.7014332e+00 2.2539124e+00
8.7124332e+00 1.4709907e+01
8.7234332e+00 1.6694997e+01
8.7344332e+00 -9.8978269e-01
8.7454332e+00 2.2008984e+01
8.7564332e+00 1.0198329e+01
8.7674332e+00 8.7744659e+00
8.7784332e+00 3.2627225e+01
8.7894332e+00 1.7244485e+01
8.8004332e+00 1.8666016e+01
8.8114332e+00 4.1078131e+00
8.8224332e+00 2.6308723e+01
8.8334332e+00 2.1860330e+01
8.8444332e+00 2.6343287e+01
8.8554332e+00 3.2381495e+01
8.8664332e+00 1.9991246e+01
8.8774332e+00 5.0738087e+00
8.8884332e+00 1.7673370e+01
8.8994332e+00 1.4695628e+01
8.9104332e+00 1.8649977e+01
8.9214332e+00 2.5170591e+01
8.9324332e+00 9.2472627e+00
8.9434332e+00 5.7152942e+00
8.9544332e+00 4.2059755e+00
8.9654332e+00 6.2444155e+00
8.9764332e+00 2.3501252e+01
8.9874332e+00 2.9740471e+01
8.9984332e+00 1.8496099e+01
9.0094332e+00 1.6612759e+01
9.0204332e+00 2.0564435e+01
9.0314332e+00 1.7368798e+01
9.0424332e+00 9.4964477e+00
9.0534332e+00 3.3273750e+00
9.0644332e+00 1.0179874e+00
9.0754332e+00 9.3421224e+00
9.0864332e+00 1.5235876e+01
9.0974332e+00 1.7271552e+01
9.1084332e+00 2.4273156e+01
9.1194332e+00 1.7646770e+01
9.1304332e+00 1.6831996e+01
9.1414332e+00 2.8111965e+01
9.1524332e+00 1.9746765e+01
9.1634332e+00 2.8071296e+01
9.1744332e+00 1.6963517e+01
9.1854332e+00 1.8259352e+01
9.1964332e+00 -1.2610911e+00
9.2074332e+00 1.0789282e+01
9.2184332e+00 -6.9982849e+00
9.2294332e+00 1.9596212e+01
9.2404332e+00 1.2635454e+01
9.2514332e+00 1.5166854e+01
9.2624332e+00 3.7625307e+00
9.2734332e+00 7.5032354e+00
9.2844332e+00 8.6327267e+00
9.2954332e+00 -8.3179871e+00
9.3064332e+00 1.9728822e+01
9.3174332e+00 1.5376759e+01
9.3284332e+00 9.4784525e+00
9.3394332e+00 5.5815364e+00
9.3504332e+00 2.6479046e+01
9.3614332e+00 1.9850845e+01
9.3724332e+00 2.6327317e+01
9.3834332e+00 1.8646816e+01
9.3944332e+00 2.3144193e+01
9.4054332e+00 8.2948198e+00
9.4164332e+00 7.9576384e+00
9.4274332e+00 -1.2258209e+00
9.4384332e+00 3.6471642e+01
9.4494332e+00 3.9461408e+01
9.4604332e+00 1.0315794e+01
9.4714332e+00 1.7730041e+01
9.4824332e+00 2.0960677e+01
9.4934332e+00 1.9063779e+01
9.5044332e+00 1.5523606e+01
9.5154332e+00 2.4831274e+01
9.5264332e+00 3.3821571e+01
9.5374332e+00 1.9626293e+01
9.5484332e+00 1.7836336e+01
9.5594332e+00 1.6186217e+01
9.5704332e+00 1.0052051e+01
9.5814332e+00 3.3805903e+01
9.5924332e+00 1.9793000e+01
9.6034332e+00 9.4970750e+00
9.6144332e+00 1.9667324e+01
9.6254332e+00 1.5946871e+01
9.6364332e+00 3.2582441e+01
9.6474332e+00 3.3554358e+01
9.6584332e+00 1.0895147e+01
9.6694332e+00 1.4323430e+01
9.6804332e+00 -3.1345972e+00
9.6914332e+00 1.9401438e+01
9.7024332e+00 2.0421261e+01
9.7134332e+00 1.2692824e+01
9.7244332e+00 2.4921080e+01
9.7354332e+00 2.4781515e+01
9.7464332e+00 1.1056900e+01
9.7574332e+00 1.6776601e+01
9.7684332e+00 8.8841393e+00
9.7794332e+00 8.9502897e+00
9.7904332e+00 1.6184406e+01
9.8014332e+00 2.0703307e+00
9.8124332e+00 1.0824684e+00
9.8234332e+00 1.2652913e+01
9.8344332e+00 1.0582037e+01
9.8454332e+00 6.6840959e+00
9.8564332e+00 1.7969223e+01
9.8674332e+00 8.6976419e+00
9.8784332e+00 1.7476427e+01
9.8894332e+00 1.8905854e+01
9.9004332e+00 1.9988915e+01
9.9114332e+00 2.2900546e+01
9.9224332e+00 1.5332542e+01
9.9334332e+00 6.8811967e+00
9.9444332e+00 -2.9603540e+00
9.9554332e+00 7.0011048e+00
9.9664332e+00 1.5227619e+01
9.9774332e+00 1.8098823e+01
9.9884332e+00 1.9414033e+01
9.9994332e+00 2.2628566e+01
1.0010433e+01 1.7082054e+01
1.0021433e+01 1.2528250e+01
1.0032433e+01 5.8456464e+00
1.0043433e+01 -2.7567889e+00
1.0054433e+01 9.9274408e+00
1.0065433e+01 5.8982227e+00
1.0076433e+01 1.0797764e+01
1.0087433e+01 2.6799993e+01
1.0098433e+01 2.2102067e+01
1.0109433e+01 3.1577844e+00
1.0120433e+01 6.3698136e+00
1.0131433e+01 5.8526132e+00
1.0142433e+01 1.1025132e+01
1.0153433e+01 -3.0360203e+00
1.0164433e+01 6.1844850e+00
1.0175433e+01 1.8572478e+01
1.0186433e+01 1.1480488e+01
1.0197433e+01 2.1114556e+01
1.0208433e+01 2.0169283e+01
1.0219433e+01 1.7728778e+01
1.0230433e+01 3.5964622e+01
1.0241433e+01 7.3442781e+00
1.0252433e+01 1.0434256e+01
1.0263433e+01 1.4448189e+00
1.0274433e+01 4.5230677e+00
1.0285433e+01 1.6921165e+01
1.0296433e+01 1.0353238e+00
1.0307433e+01 4.2511640e-01
1.0318433e+01 1.2813196e+01
1.0329433e+01 1.4722646e+01
1.0340433e+01 8.1810204e+00
1.0351433e+01 4.0167702e+01
1.0362433e+01 1.8505567e+01
1.0373433e+01 1.2322587e+01
1.0384433e+01 1.7432839e+01
1.0395433e+01 1.6620007e+01
1.0406433e+01 1.8949966e+01
1.0417433e+01 2.5174902e+01
1.0428433e+01 1.1845991e+01
1.0439433e+01 1.0811287e+01
1.0450433e+01 1.7951259e+01
1.0461433e+01 -3.2791693e+00
1.0472433e+01 2.5975231e+01
1.0483433e+01 6.6881150e+00
1.0494433e+01 1.3525041e+01
1.0505433e+01 7.7397567e+00
1.0516433e+01 1.5814489e+01
1.0527433e+01 4.5385603e-01
1.0538433e+01 7.3967159e+00
1.0549433e+01 8.3348370e+00
1.0560433e+01 1.1559278e+01
1.0571433e+01 2.3573447e+01
1.0582433e+01 2.2765275e+01
1.0593433e+01 1.2736999e+01
1.0604433e+01 -5.4886811e+00
1.0615433e+01 6.9199753e+00
1.0626433e+01 7.1026376e+00
1.0637433e+01 1.3015586e-01
1.0648433e+01 1.3772350e+01
1.0659433e+01 1.0272152e+01
1.0670433e+01 8.9058708e+00
1.0681433e+01 1.6059888e+01
1.0692433e+01 1.4700815e+01
1.0703433e+01 5.0685630e+00
1.0714433e+01 3.5195313e-01
1.0725433e+01 7.5872973e+00
1.0736433e+01 1.0910367e+01
1.0747433e+01 1.8117555e+01
1.0758433e+01 1.3901143e+01
1.0769433e+01 1.3658394e+01
1.0780433e+01 1.0433489e+01
1.0791433e+01 6.4320223e+00
1.0802433e+01 1.0450876e+01
1.0813433e+01 7.5151739e+00
1.0824433e+01 1.1104269e+01
1.0835433e+01 1.3098644e+01
1.0846433e+01 1.9234362e+01
1.0857433e+01 2.0376149e+01
1.0868433e+01 2.5500997e+01
1.0879433e+01 1.7672210e+01
1.0890433e+01 6.9735126e+00
1.0901433e+01 1.4645709e+01
1.0912433e+01 1.8259614e+01
1.0923433e+01 1.6115661e+01
1.0934433e+01 9.4222862e+00
1.0945433e+01 8.6868934e+00
1.0956433e+01 1.0878968e+01
1.0967433e+01 1.4628834e+01
1.0978433e+01 7.6473687e+00
1.0989433e+01 -1.3052843e+00
1.1000433e+01 2.1039311e+01
1.1011433e+01 1.9589610e+01
1.1022433e+01 1.7655009e+01
1.1033433e+01 -2.7444731e-01
1.1044433e+01 2.1350088e+01
1.1055433e+01 2.7218660e+01
1.1066433e+01 1.7607246e+01
1.1077433e+01 2.6323313e+00
1.1088433e+01 -7.3014744e-01
1.1099433e+01 -3.0756038e+00
1.1110433e+01 8.7567687e+00
1.1121433e+01 9.0132467e+00
1.1132433e+01 6.0567169e+00
1.1143433e+01 2.2411462e+00
1.1154433e+01 1.2202251e+01
1.1165433e+01 3.4141100e+01
1.1176433e+01 1.8109278e+01
1.1187433e+01 3.2323744e+01
1.1198433e+01 1.1987384e+01
1.1209433e+01 2.3190336e+01
1.1220433e+01 8.1600967e+00
1.1231433e+01 9.2040546e+00
1.1242433e+01 1.6148127e+01
1.1253433e+01 1.5457411e+01
1.1264433e+01 -2.3729950e+00
1.1275433e+01 1.2602376e+01
1.1286433e+01 1.5529503e+01
1.1297433e+01 8.4236534e+00
1.1308433e+01 -1.7382508e-01
1.1319433e+01 2.2374636e+01
1.1330433e+01 1.5085374e+01
1.1341433e+01 3.0452408e+01
1.1352433e+01 2.2056426e+01
1.1363433e+01 1.4181168e+00
1.1374433e+01 -4.2015012e+00
1.1385433e+01 1.9581680e+00
1.1396433e+01 1.4056396e+01
1.1407433e+01 1.5043059e+01
1.1418433e+01 4.6052796e-01
1.1429433e+01 2.0016130e+01
1.1440433e+01 2.1230664e+01
1.1451433e+01 3.2021918e+01
1.1462433e+01 1.5034562e+01
1.1473433e+01 1.8446974e+01
1.1484433e+01 1.4352634e+01
1.1495433e+01 1.3420139e+01
1.1506433e+01 1.1016820e+01
1.1517433e+01 2.0089974e+01
1.1528433e+01 7.1259611e+00
1.1539433e+01 6.2854803e+00
1.1550433e+01 5.1895204e+00
1.1561433e+01 2.1040306e+00
1.1572433e+01 -1.1965601e+00
1.1583433e+01 1.0633258e+01
1.1594433e+01 1.5277503e+01
1.1605433e+01 1.7194694e+01
1.1616433e+01 2.4485519e+00
1.1627433e+01 1.2488634e+01
1.1638433e+01 5.0260813e+00
1.1649433e+01 3.8601915e+00
1.1660433e+01 5.0102445e+00
1.1671433e+01 1.5117729e+01
1.1682433e+01 1.8037226e+01
1.1693433e+01 1.8352732e+01
1.1704433e+01 1.7909489e+01
1.1715433e+01 1.3198544e+01
1.1726433e+01 6.2809875e+00
1.1737433e+01 7.6493486e+00
1.1748433e+01 -5.6110355e-01
1.1759433e+01 5.3089602e+00
1.1770433e+01 8.2830392e+00
1.1781433e+01 1.6628733e+01
1.1792433e+01 2.0126639e+01
1.1803433e+01 1.1018908e-01
1.1814433e+01 2.2500321e+01
1.1825433e+01 3.4409363e+01
1.1836433e+01 4.0956556e+00
1.1847433e+01 2.7298372e+00
1.1858433e+01 1.3829457e+01
1.1869433e+01 1.2593714e+01
1.1880433e+01 5.5427869e+00
1.1891433e+01 1.5549865e+01
1.1902433e+01 6.2220664e-01
1.1913433e+01 1.3011251e+01
1.1924433e+01 1.9760557e+01
1.1935433e+01 2.2252283e+01
1.1946433e+01 2.2579277e+01
1.1957433e+01 3.2374359e+01
1.1968433e+01 2.4523877e+01
1.1979433e+01 2.2295889e+01
1.1990433e+01 2.4974014e+01
1.2001433e+01 2.3164460e+01
1.2012433e+01 2.5989685e+01
1.2023433e+01 2.6728418e+01
1.2034433e+01 1.7391006e+01
1.2045433e+01 2.1905228e+01
1.2056433e+01 1.2355081e+01
1.2067433e+01 1.9863093e+01
1.2078433e+01 5.6577629e+00
1.2089433e+01 1.4137957e+01
1.2100433e+01 -1.5740428e+00
1.2111433e+01 8.4624290e+00
1.2122433e+01 1.9714822e+01
1.2133433e+01 6.7922986e+00
1.2144433e+01 2.3938317e+01
1.2155433e+01 1.4520013e+01
1.2166433e+01 4.6965428e-01
1.2177433e+01 6.6527939e-01
1.2188433e+01 1.0533609e+01
1.2199433e+01 8.4522753e+00
1.2210433e+01 3.6518629e+00
1.2221433e+01 3.8309979e+00
1.2232433e+01 1.8917356e+01
1.2243433e+01 7.6165444e+00
1.2254433e+01 3.6408876e+00
1.2265433e+01 -4.6393104e+00
1.2276433e+01 2.1311192e+01
1.2287433e+01 1.4477294e+01
1.2298433e+01 6.7100327e+00
1.2309433e+01 2.0431633e+01
1.2320433e+01 1.6992740e+01
1.2331433e+01 1.7014239e+01
1.2342433e+01 1.8260842e+00
1.2353433e+01 -5.1817235e-01
1.2364433e+01 4.2204463e+00
1.2375433e+01 2.1075293e+01
1.2386433e+01 1.6484972e+01
1.2397433e+01 -5.3852722e+00
1.2408433e+01 -4.9636637e+00
1.2419433e+01 1.5876986e+01
1.2430433e+01 1.1551337e+01
1.2441433e+01 1.9733256e+01
1.2452433e+01 6.1195463e+00
1.2463433e+01 3.4431893e+00
1.2474433e+01 9.9760577e+00
1.2485433e+01 1.3301713e+01
1.2496433e+01 5.1930785e+00
1.2507433e+01 1.5226354e+01
1.2518433e+01 2.9696902e+01
1.2529433e+01 1.7615194e+01
1.2540433e+01 1.3921219e+01
1.2551433e+01 2.0359260e+01
1.2562433e+01 2.0035556e+01
1.2573433e+01 2.0416199e+01
1.2584433e+01 2.5770567e+01
1.2595433e+01 3.5075111e+01
1.2606433e+01 4.1996430e+01
1.2617433e+01 3.5488364e+01
1.2628433e+01 4.3012592e+01
1.2639433e+01 5.5234193e+01
1.2650433e+01 5.1904976e+01
1.2661433e+01 4.4430538e+01
1.2672433e+01 4.4783339e+01
1.2683433e+01 4.7452036e+01
1.2694433e+01 3.0961698e+01
1.2705433e+01 2.9252461e+01
1.2716433e+01 3.5047363e+01
1.2727433e+01 2.6566241e+01
1.2738433e+01 6.4310212e+00
1.2749433e+01 8.3236612e+00
1.2760433e+01 5.9667270e+00
1.2771433e+01 4.0535767e+00
1.2782433e+01 5.0934601e+00
1.2793433e+01 5.1660488e+00
1.2804433e+01 1.0953746e+01
1.2815433e+01 1.2585318e+01
1.2826433e+01 1.3011985e+00
1.2837433e+01 7.2248426e+00
1.2848433e+01 1.4350235e+01
1.2859433e+01 1.2503380e+01
1.2870433e+01 2.6654821e+01
1.2881433e+01 3.3956862e+01
1.2892433e+01 2.4265007e+01
1.2903433e+01 2.2729729e+01
1.2914433e+01 2.2142501e+01
1.2925433e+01 1.1860267e+01
1.2936433e+01 1.2715908e+01
1.2947433e+01 -7.8034720e-01
1.2958433e+01 1.0578098e+01
1.2969433e+01 8.7625907e+00
1.2980433e+01 -7.9647661e+00
1.2991433e+01 2.2825311e+01
1.3002433e+01 3.2480491e-01
1.3013433e+01 1.1932711e+01
1.3024433e+01 1.4659151e+01
1.3035433e+01 1.9677740e+01
1.3046433e+01 1.0044481e+01
1.3057433e+01 2.9909884e+01
1.3068433e+01 1.2204519e+01
1.3079433e+01 2.8949535e+01
1.3090433e+01 2.1335264e+01
1.3101433e+01 2.4537114e+01
1.3112433e+01 8.8855457e+00
1.3123433e+01 2.9882000e+00
1.3134433e+01 2.2012110e+01
1.3145433e+01 6.4431906e+00
1.3156433e+01 1.4338811e+01
1.3167433e+01 1.3178387e+01
1.3178433e+01 2.0906269e+01
1.3189433e+01 3.3382258e+00
1.3200433e+01 1.3851693e+01
1.3211433e+01 2.3708242e+01
1.3222433e+01 2.2667480e+01
1.3233433e+01 2.3069085e+01
1.3244433e+01 1.3246414e+01
1.3255433e+01 1.1535737e+01
1.3266433e+01 1.8967970e+01
1.3277433e+01 1.6290921e+01
1.3288433e+01 1.0539967e+01
1.3299433e+01 8.6689271e+00
1.3310433e+01 1.7215048e+01
1.3321433e+01 7.8878478e+00
1.3332433e+01 4.8397313e+00
1.3343433e+01 1.9341025e+01
1.3354433e+01 2.4784021e+01
1.3365433e+01 1.7225883e+01
1.3376433e+01 2.4354239e+01
1.3387433e+01 1.0843206e+01
1.3398433e+01 -1.4015837e+00
1.3409433e+01 6.3070834e+00
1.3420433e+01 4.8261146e+00
1.3431433e+01 -4.3758482e+00
1.3442433e+01 2.0398192e+00
1.3453433e+01 7.1335918e+00
1.3464433e+01 7.3140336e+00
1.3475433e+01 1.4263052e+01
1.3486433e+01 2.4813915e+01
1.3497433e+01 1.7693759e+01
1.3508433e+01 4.5422692e+00
1.3519433e+01 4.7118916e+00
1.3530433e+01 1.3969555e+01
1.3541433e+01 1.8719379e+01
1.3552433e+01 1.4474651e+01
1.3563433e+01 1.9830269e+01
1.3574433e+01 2.2438041e+01
1.3585433e+01 1.4244955e+01
1.3596433e+01 1.4190517e+01
1.3607433e+01 1.1767767e+01
1.3618433e+01 4.3587559e+00
1.3629433e+01 1.3878442e+01
1.3640433e+01 1.7612833e+01
1.3651433e+01 2.2526655e+01
1.3662433e+01 2.0597666e+01
1.3673433e+01 2.6268935e+01
1.3684433e+01 2.3130281e+01
1.3695433e+01 1.9458133e+01
1.3706433e+01 1.6339910e+01
1.3717433e+01 1.3085363e+01
1.3728433e+01 1.6082390e+01
1.3739433e+01 1.2093482e+01
1.3750433e+01 1.1236687e+01
1.3761433e+01 2.0926911e+01
1.3772433e+01 1.4823869e+01
1.3783433e+01 1.1019101e+01
1.3794433e+01 5.7676917e+00
1.3805433e+01 1.4739795e+01
1.3816433e+01 7.5031495e+00
1.3827433e+01 -4.4362551e+00
1.3838433e+01 -6.6516742e-03
1.3849433e+01 1.5951207e+01
1.3860433e+01 7.2764872e+00
1.3871433e+01 1.6937371e+01
1.3882433e+01 -3.9453634e+00
1.3893433e+01 2.7678644e+01
1.3904433e+01 1.6995901e+01
1.3915433e+01 4.7824702e+00
1.3926433e+01 1.9786577e+01
1.3937433e+01 -2.4364777e-01
1.3948433e+01 3.3586578e+00
1.3959433e+01 1.2461602e+01
1.3970433e+01 1.8544063e+01
1.3981433e+01 2.1544040e+01
1.3992433e+01 -9.1454374e+00
1.4003433e+01 2.0491557e+01
1.4014433e+01 1.8705941e+01
1.4025433e+01 1.9599937e+01
1.4036433e+01 1.8443923e+01
1.4047433e+01 1.5444417e+01
1.4058433e+01 1.3252838e+01
1.4069433e+01 1.7337693e+01
1.4080433e+01 1.9740283e+01
1.4091433e+01 1.4571785e+01
1.4102433e+01 1.9810910e+01
1.4113433e+01 7.3072466e-01
1.4124433e+01 1.0506580e+01
1.4135433e+01 1.8635586e+01
1.4146433e+01 1.7567527e+01
1.4157433e+01 -6.5258128e+00
1.4168433e+01 7.4944894e+00
1.4179433e+01 1.6641788e+01
1.4190433e+01 1.9322668e+01
1.4201433e+01 1.1436365e+01
1.4212433e+01 7.0905743e+00
1.4223433e+01 1.4538415e+01
1.4234433e+01 1.8695904e+01
1.4245433e+01 2.6933176e+01
1.4256433e+01 2.5274855e+01
1.4267433e+01 1.5836017e+01
1.4278433e+01 3.9263607e+00
1.4289433e+01 7.1804486e-01
1.4300433e+01 7.1391430e+00
1.4311433e+01 7.5703719e+00
1.4322433e+01 1.5545492e+01
1.4333433e+01 1.1858157e+01
1.4344433e+01 1.5061415e+01
1.4355433e+01 1.2649340e+01
1.4366433e+01 8.6972619e+00
1.4377433e+01 4.9410515e+00
1.4388433e+01 2.3164569e+00
1.4399433e+01 5.0411348e+00
1.4410433e+01 4.5812934e+00
1.4421433e+01 1.0665487e+01
1.4432433e+01 1.4615279e+01
1.4443433e+01 1.8286141e+01
1.4454433e+01 6.6156002e+00
1.4465433e+01 9.2611595e+00
1.4476433e+01 3.1815553e+01
1.4487433e+01 2.9284706e+01
1.4498433e+01 1.7343307e+01
1.4509433e+01 1.3979490e+01
1.4520433e+01 1.5499057e+01
1.4531433e+01 2.4336664e+01
1.4542433e+01 1.6141213e+01
1.4553433e+01 1.6969900e+01
1.4564433e+01 1.1084616e+01
1.4575433e+01 5.2332981e+00
1.4586433e+01 6.0324141e+00
1.4597433e+01 8.0581890e+00
1.4608433e+01 1.5924226e+01
1.4619433e+01 1.5654100e+01
1.4630433e+01 2.4434229e+01
1.4641433e+01 1.2283683e+01
1.4652433e+01 2.7882625e+01
1.4663433e+01 2.4913706e+01
1.4674433e+01 2.5030549e+01
1.4685433e+01 2.6433160e+01
1.4696433e+01 2.4957857e+01
1.4707433e+01 2.7974898e+01
1.4718433e+01 -2.0988923e+00
1.4729433e+01 7.3158892e+00
1.4740433e+01 1.3112811e+01
1.4751433e+01 -6.3918522e-01
1.4762433e+01 2.6464164e+01
1.4773433e+01 2.1360695e+01
1.4784433e+01 1.7806278e+01
1.4795433e+01 2.4155351e+01
1.4806433e+01 8.4049092e+00
1.4817433e+01 6.6091832e+00
1.4828433e+01 1.0471645e+01
1.4839433e+01 4.6339008e+00
1.4850433e+01 2.5596426e+00
1.4861433e+01 5.6554411e+00
1.4872433e+01 1.3422767e+01
1.4883433e+01 8.3189155e+00
1.4894433e+01 2.2401530e+00
1.4905433e+01 -2.7854524e+00
1.4916433e+01 7.8993786e+00
1.4927433e+01 1.3648219e+01
1.4938433e+01 2.2455077e+01
1.4949433e+01 -4.4861009e+00
1.4960433e+01 4.9901964e+00
1.4971433e+01 1.5097885e+01
1.4982433e+01 1.3388661e+01
1.4993433e+01 1.9939204e+01
1.5004433e+01 2.4559227e+01
1.5015433e+01 1.1043862e+01
1.5026433e+01 1.1711574e+01
1.5037433e+01 6.1583562e+00
1.5048433e+01 1.5362530e+01
1.5059433e+01 2.3137261e+01
1.5070433e+01 1.3258461e+01
1.5081433e+01 3.1115533e+00
1.5092433e+01 -5.6836779e-01
1.5103433e+01 1.5470768e+01
1.5114433e+01 1.5470015e+01
1.5125433e+01 1.2391971e+01
1.5136433e+01 1.3791323e+01
1.5147433e+01 2.4823229e+01
1.5158433e+01 1.2849803e+01
1.5169433e+01 1.1189473e+01
1.5180433e+01 4.2130653e+00
1.5191433e+01 1.1581312e+01
1.5202433e+01 1.4785301e+01
1.5213433e+01 2.8591297e+00
1.5224433e+01 -3.4920360e-01
1.5235433e+01 6.2444371e+00
1.5246433e+01 1.3396597e+01
1.5257433e+01 1.1324242e+01
1.5268433e+01 8.8340665e+00
1.5279433e+01 9.2747618e+00
1.5290433e+01 1.6508567e+01
1.5301433e+01 1.5514903e+01
1.5312433e+01 1.3541591e+01
1.5323433e+01 1.2493227e+01
1.5334433e+01 1.4809383e+01
1.5345433e+01 1.0929531e+01
1.5356433e+01 -1.2062178e+00
1.5367433e+01 2.2694188e+00
1.5378433e+01 1.1562339e+01
1.5389433e+01 2.3870782e+01
1.5400433e+01 2.6333312e+01
1.5411433e+01 1.0479994e+01
1.5422433e+01 1.7381725e+01
1.5433433e+01 2.0471903e+01
1.5444433e+01 2.6339743e+01
1.5455433e+01 5.6930169e+00
1.5466433e+01 1.6473057e+01
1.5477433e+01 3.7980384e+01
1.5488433e+01 2.9943268e+01
1.5499433e+01 1.6823456e+01
1.5510433e+01 1.0138581e+01
1.5521433e+01 5.1005333e+00
1.5532433e+01 -2.2243025e+00
1.5543433e+01 4.4241976e+00
1.5554433e+01 5.3527287e+00
1.5565433e+01 6.5525272e+00
1.5576433e+01 -2.7591599e+00
1.5587433e+01 8.1935858e+00
1.5598433e+01 6.0212233e+00
1.5609433e+01 1.9494813e+01
1.5620433e+01 2.2960823e+01
1.5631433e+01 5.6685614e+00
1.5642433e+01 5.8206791e+00
1.5653433e+01 8.1133717e-01
1.5664433e+01 1.2972497e+01
1.5675433e+01 9.6555614e+00
1.5686433e+01 9.3031171e+00
1.5697433e+01 3.0171787e+01
1.5708433e+01 1.7948739e+01
1.5719433e+01 1.1586969e+01
1.5730433e+01 1.8341550e+01
1.5741433e+01 -5.4105080e+00
1.5752433e+01 1.5519249e+01
1.5763433e+01 1.3742799e+01
1.5774433e+01 2.1652945e+01
1.5785433e+01 2.2029936e+01
1.5796433e+01 9.6850654e+00
1.5807433e+01 2.4634846e+01
1.5818433e+01 8.9763073e+00
1.5829433e+01 1.3539465e+00
1.5840433e+01 1.5997245e+01
1.5851433e+01 1.5867431e+01
1.5862433e+01 7.3302897e+00
1.5873433e+01 3.4664273e+00
1.5884433e+01 4.9945708e+00
1.5895433e+01 2.1625901e+00
1.5906433e+01 1.8630627e+01
1.5917433e+01 2.1769879e+01
1.5928433e+01 1.0161602e+01
1.5939433e+01 1.7215587e+01
1.5950433e+01 3.7756876e+00
1.5961433e+01 6.5172428e+00
1.5972433e+01 1.0155698e+00
1.5983433e+01 7.0926421e+00
1.5994433e+01 1.4600853e+01
1.6005433e+01 6.3319457e+00
1.6016433e+01 1.6518718e+01
1.6027433e+01 1.2527070e+01
1.6038433e+01 1.5422374e+01
1.6049433e+01 2.5204990e+01
1.6060433e+01 1.8439903e+01
1.6071433e+01 1.3848337e+01
1.6082433e+01 1.4067361e+01
1.6093433e+01 8.3654726e+00
1.6104433e+01 1.2426512e+01
1.6115433e+01 1.4884093e+01
1.6126433e+01 1.1163139e+01
1.6137433e+01 1.5511269e+01
1.6148433e+01 9.9418023e+00
1.6159433e+01 9.1435557e+00
1.6170433e+01 9.3449953e+00
1.6181433e+01 1.2903693e+01
1.6192433e+01 1.0699932e+01
1.6203433e+01 1.0545691e+01
1.6214433e+01 7.6623345e+00
1.6225433e+01 -1.3524786e+00
1.6236433e+01 1.1288640e+01
1.6247433e+01 1.4524685e+01
1.6258433e+01 5.3424680e+00
1.6269433e+01 1.6966677e+01
1.6280433e+01 1.8035715e+01
1.6291433e+01 6.3860766e+00
1.6302433e+01 1.2055538e+01
1.6313433e+01 1.4857640e+01
1.6324433e+01 1.7347059e+01
1.6335433e+01 1.5566945e+01
1.6346433e+01 2.8359027e+00
1.6357433e+01 1.7499144e+01
1.6368433e+01 1.9052446e+01
1.6379433e+01 1.6487698e+01
1.6390433e+01 1.0350449e+01
1.6401433e+01 1.3039000e+01
1.6412433e+01 3.0335429e+00
1.6423433e+01 2.4046652e+01
1.6434433e+01 2.8154112e+00
1.6445433e+01 1.6850604e+01
1.6456433e+01 2.0828757e+01
1.6467433e+01 8.9727839e+00
1.6478433e+01 4.6961436e+00
1.6489433e+01 2.4360154e+01
1.6500433e+01 3.1307836e+00
1.6511433e+01 4.5098197e+00
1.6522433e+01 3.1635678e+01
1.6533433e+01 1.6249630e+01
1.6544433e+01 1.4583492e+01
1.6555433e+01 3.8293449e+01
1.6566433e+01 -5.0902269e+00
1.6577433e+01 8.5346781e+00
1.6588433e+01 1.3686883e+01
1.6599433e+01 3.4697748e+00
1.6610433e+01 1.3664624e+01
1.6621433e+01 1.3494243e+00
1.6632433e+01 5.1010204e+00
1.6643433e+01 -1.3698663e+01
1.6654433e+01 1.5141968e+01
1.6665433e+01 9.6614619e+00
1.6676433e+01 2.1606896e+01
1.6687433e+01 4.8693229e+00
1.6698433e+01 1.3244503e+01
1.6709433e+01 1.0722208e+01
1.6720433e+01 1.1557490e+01
1.6731433e+01 -6.2686502e+00
1.6742433e+01 1.2171733e+01
1.6753433e+01 1.0577955e+01
1.6764433e+01 2.2050124e+01
1.6775433e+01 1.2217699e+01
1.6786433e+01 1.4969934e+01
1.6797433e+01 1.3208001e+01
1.6808433e+01 3.1488129e+00
1.6819433e+01 1.2528185e+01
1.6830433e+01 1.2245933e+01
1.6841433e+01 1.6556642e+01
1.6852433e+01 1.6944146e+01
1.6863433e+01 1.8585320e+01
1.6874433e+01 5.1164958e+00
1.6885433e+01 7.8944960e+00
1.6896433e+01 1.6044664e+01
1.6907433e+01 1.7918556e+01
1.6918433e+01 1.0091343e+01
1.6929433e+01 -3.1320228e+00
1.6940433e+01 3.9886949e+00
1.6951433e+01 8.3827624e+00
1.6962433e+01 1.0005921e+01
1.6973433e+01 1.0511087e+01
1.6984433e+01 1.0879046e+01
1.6995433e+01 1.2018900e+01
1.7006433e+01 1.5010199e+01
1.7017433e+01 1.3177528e+01
1.7028433e+01 2.8101498e+01
1.7039433e+01 3.6050850e+01
1.7050433e+01 2.2341497e+01
1.7061433e+01 1.4803179e+01
1.7072433e+01 4.3061189e+00
1.7083433e+01 8.0126458e+00
1.7094433e+01 9.9874389e+00
1.7105433e+01 1.4119687e+01
1.7116433e+01 1.7130314e+01
1.7127433e+01 2.1646482e+01
1.7138433e+01 2.8331632e+01
1.7149433e+01 2.3976505e+01
1.7160433e+01 1.8041219e+01
1.7171433e+01 2.5987018e+01
1.7182433e+01 1.7343186e+01
1.7193433e+01 1.0428136e+01
1.7204433e+01 5.1536067e+00
1.7215433e+01 9.7307098e+00
1.7226433e+01 1.9974442e+01
1.7237433e+01 1.3387303e+01
1.7248433e+01 6.0165924e+00
1.7259433e+01 1.3044177e+01
1.7270433e+01 2.3782700e+01
1.7281433e+01 5.2321340e+00
1.7292433e+01 2.0066317e+01
1.7303433e+01 2.5025272e+01
1.7314433e+01 2.0714000e+01
1.7325433e+01 9.7666371e+00
1.7336433e+01 5.1626072e+00
1.7347433e+01 1.6571511e+01
1.7358433e+01 6.0576531e+00
1.7369433e+01 1.6555892e+01
1.7380433e+01 3.9686197e+00
1.7391433e+01 5.7189293e+00
1.7402433e+01 7.5224803e+00
1.7413433e+01 8.5239004e+00
1.7424433e+01 1.4784170e+01
1.7435433e+01 3.1911439e+00
1.7446433e+01 9.7331820e+00
1.7457433e+01 1.0608768e+01
1.7468433e+01 3.0961116e+01
1.7479433e+01 3.0703063e+01
1.7490433e+01 1.9159232e+01
1.7501433e+01 4.1074035e+00
1.7512433e+01 8.4045614e+00
1.7523433e+01 2.2333344e+01
1.7534433e+01 8.5008985e+00
1.7545433e+01 -5.4835470e-01
1.7556433e+01 -2.6886512e+00
1.7567433e+01 -7.7999156e+00
1.7578433e+01 1.2220945e+01
1.7589433e+01 8.5776625e+00
1.7600433e+01 1.2325752e+01
1.7611433e+01 2.3496128e+01
1.7622433e+01 1.3742333e+01
1.7633433e+01 7.2054105e+00
1.7644433e+01 -1.5939222e+00
1.7655433e+01 7.4205991e-01
1.7666433e+01 9.7954338e+00
1.7677433e+01 9.4424394e+00
1.7688433e+01 1.8957277e+01
1.7699433e+01 9.6341605e+00
1.7710433e+01 1.3391800e+01
1.7721433e+01 6.4905024e+00
1.7732433e+01 1.9996888e+01
1.7743433e+01 1.1858151e+01
1.7754433e+01 1.8582444e+01
1.7765433e+01 1.1782548e+01
1.7776433e+01 1.5602930e+01
1.7787433e+01 1.2619764e+01
1.7798433e+01 3.9434653e+00
1.7809433e+01 2.2995457e+01
1.7820433e+01 1.6344503e+01
1.7831433e+01 2.7176213e+01
1.7842433e+01 2.2950823e+01
1.7853433e+01 1.1577062e+01
1.7864433e+01 1.7716541e+01
1.7875433e+01 2.9593536e+01
1.7886433e+01 3.5217783e+01
1.7897433e+01 1.6968021e+01
1.7908433e+01 -2.3445296e+00
1.7919433e+01 9.1362461e-02
1.7930433e+01 1.1285870e+01
1.7941433e+01 5.9515711e+00
1.7952433e+01 2.9596664e+00
1.7963433e+01 1.0280641e+01
1.7974433e+01 1.6017717e+01
1.7985433e+01 5.9182460e+00
1.7996433e+01 4.1947593e+00
1.8007433e+01 1.1434082e+01
1.8018433e+01 1.0329090e+01
1.8029433e+01 1.7122195e+01
1.8040433e+01 1.4888500e+01
1.8051433e+01 6.0298800e+00
1.8062433e+01 1.6105294e+01
1.8073433e+01 1.0452348e+01
1.8084433e+01 1.1095962e+01
1.8095433e+01 -2.7940986e+00
1.8106433e+01 -5.8309956e+00
1.8117433e+01 1.2225908e+01
1.8128433e+01 7.9120197e+00
1.8139433e+01 -5.2636033e+00
1.8150433e+01 1.3845554e+01
1.8161433e+01 2.2728935e+01
1.8172433e+01 1.3562295e+01
1.8183433e+01 1.2267486e+01
1.8194433e+01 1.3076486e+01
1.8205433e+01 7.0660378e+00
1.8216433e+01 5.0444649e+00
1.8227433e+01 7.3509715e+00
1.8238433e+01 1.0373487e+01
1.8249433e+01 1.1001408e+01
1.8260433e+01 1.1799173e+01
1.8271433e+01 1.1976227e+01
1.8282433e+01 1.9411204e+00
1.8293433e+01 1.1820331e+01
1.8304433e+01 1.0504550e+01
1.8315433e+01 1.6040172e+01
1.8326433e+01 3.6596206e+00
1.8337433e+01 1.3576963e+01
1.8348433e+01 1.5821513e+01
1.8359433e+01 2.1434717e+01
1.8370433e+01 1.0698202e+01
1.8381433e+01 1.3681442e+01
1.8392433e+01 8.1453798e+00
1.8403433e+01 4.0104693e+00
1.8414433e+01 9.4287315e-01
1.8425433e+01 1.6812363e+01
1.8436433e+01 7.0908741e+00
1.8447433e+01 3.3323030e+01
1.8458433e+01 5.4713677e+00
1.8469433e+01 2.2988336e+01
1.8480433e+01 2.4282653e+01
1.8491433e+01 1.4254582e+01
1.8502433e+01 1.8268322e+01
1.8513433e+01 1.1579175e+01
1.8524433e+01 1.8357160e+01
1.8535433e+01 2.0764553e+01
1.8546433e+01 1.2607250e+01
1.8557433e+01 1.8108878e+01
1.8568433e+01 2.4517231e+01
1.8579433e+01 2.2832398e+01
1.8590433e+01 2.6115274e+01
1.8601433e+01 2.1837922e+01
1.8612433e+01 1.9211696e+01
1.8623433e+01 1.4663445e+01
1.8634433e+01 2.2259400e+01
1.8645433e+01 2.1169395e+01
1.8656433e+01 3.2322874e+01
1.8667433e+01 1.9751109e+01
1.8678433e+01 1.9461741e+01
1.8689433e+01 8.6614656e+00
1.8700433e+01 1.5867864e+01
1.8711433e+01 2.0178745e+01
1.8722433e+01 1.3588879e+01
1.8733433e+01 1.4940277e+01
1.8744433e+01 8.3663273e+00
1.8755433e+01 2.9441079e+00
1.8766433e+01 -2.0489353e+00
1.8777433e+01 5.4755160e+00
1.8788433e+01 6.7167077e+00
1.8799433e+01 7.3161828e+00
1.8810433e+01 7.2980890e+00
1.8821433e+01 6.5773052e+00
1.8832433e+01 1.0782278e+01
1.8843433e+01 2.3041654e+01
1.8854433e+01 1.2019679e+01
1.8865433e+01 9.4820978e+00
1.8876433e+01 2.0382300e+01
1.8887433e+01 1.3327217e+01
1.8898433e+01 1.5788835e+01
1.8909433e+01 2.1500542e+01
1.8920433e+01 1.3417673e+01
1.8931433e+01 3.7865877e+00
1.8942433e+01 9.7994967e+00
1.8953433e+01 1.1002474e+01
1.8964433e+01 1.4497490e+01
1.8975433e+01 7.1992586e+00
1.8986433e+01 1.9438132e+00
1.8997433e+01 1.3034820e+01
1.9008433e+01 3.4104545e+01
1.9019433e+01 1.8939447e+01
1.9030433e+01 5.3835469e+00
1.9041433e+01 9.5801160e+00
1.9052433e+01 8.3900097e+00
1.9063433e+01 8.3575506e+00
1.9074433e+01 1.6938924e+01
1.9085433e+01 2.0091775e+01
1.9096433e+01 2.1658342e+01
1.9107433e+01 7.1040971e+00
1.9118433e+01 6.1730351e+00
1.9129433e+01 1.2878238e+01
1.9140433e+01 1.2105641e+01
1.9151433e+01 9.9575258e+00
1.9162433e+01 3.9234960e+00
1.9173433e+01 1.9355619e+01
1.9184433e+01 -5.8442429e+00
1.9195433e+01 3.4526219e+00
1.9206433e+01 1.2939001e+01
1.9217433e+01 1.4965045e+01
1.9228433e+01 4.1282284e-03
1.9239433e+01 7.3095275e+00
1.9250433e+01 7.4365532e+00
1.9261433e+01 2.2311561e+01
1.9272433e+01 2.0711138e+01
1.9283433e+01 1.3950981e+01
1.9294433e+01 3.0929405e+00
1.9305433e+01 1.7488057e+01
1.9316433e+01 1.6914855e+01
1.9327433e+01 -7.9687507e+00
1.9338433e+01 3.3208603e+00
1.9349433e+01 1.8075614e+01
1.9360433e+01 1.4797049e+01
1.9371433e+01 2.6330506e+01
1.9382433e+01 8.1102966e+00
1.9393433e+01 1.5411833e+01
1.9404433e+01 -8.2119899e+00
1.9415433e+01 1.3846019e+01
1.9426433e+01 1.6881023e+01
1.9437433e+01 2.9529862e+01
1.9448433e+01 7.1241281e+00
1.9459433e+01 1.4108872e+01
1.9470433e+01 1.3384291e+01
1.9481433e+01 1.0511280e+01
1.9492433e+01 1.4125310e+01
1.9503433e+01 1.0447237e+01
1.9514433e+01 2.7126999e+01
1.9525433e+01 -5.9757979e-01
1.9536433e+01 3.4378319e+00
1.9547433e+01 1.6051601e+01
1.9558433e+01 8.9105081e+00
1.9569433e+01 1.4676050e+01
1.9580433e+01 2.3444950e+01
1.9591433e+01 2.5003226e+01
1.9602433e+01 1.7056296e+01
1.9613433e+01 6.3557316e+00
1.9624433e+01 3.6477819e+00
1.9635433e+01 2.3030525e+01
1.9646433e+01 3.2224486e+01
1.9657433e+01 1.4265193e+01
1.9668433e+01 5.5221096e+00
1.9679433e+01 7.9498315e+00
1.9690433e+01 1.3661792e+01
1.9701433e+01 1.1191261e+01
1.9712433e+01 2.8356567e+00
1.9723433e+01 5.7466842e+00
1.9734433e+01 1.5804717e+01
1.9745433e+01 2.2267719e+01
1.9756433e+01 1.8963021e+01
1.9767433e+01 1.3357084e+01
1.9778433e+01 7.8007465e+00
1.9789433e+01 5.9429076e+00
1.9800433e+01 7.3403823e+00
1.9811433e+01 1.7747817e+01
1.9822433e+01 1.5191414e+01
1.9833433e+01 3.5857955e+00
1.9844433e+01 8.8122094e+00
1.9855433e+01 1.3733666e+00
1.9866433e+01 -1.7536818e+00
1.9877433e+01 1.0413527e+01
1.9888433e+01 1.6991424e+01
1.9899433e+01 9.9843654e+00
1.9910433e+01 4.9867136e+00
1.9921433e+01 -6.0799220e+00
1.9932433e+01 7.5372830e+00
1.9943433e+01 1.3003595e+01
1.9954433e+01 2.4754369e+01
1.9965433e+01 8.1171413e+00
1.9976433e+01 2.1350112e+00
1.9987433e+01 2.0900599e+01
1.9998433e+01 2.3268740e+01
2.0009433e+01 2.2692406e+01
2.0020433e+01 2.4370582e+01
2.0031433e+01 1.4433508e+01
2.0042433e+01 1.6384739e+01
2.0053433e+01 1.0114961e+01
2.0064433e+01 1.0784119e+01
2.0075433e+01 5.2893612e+00
2.0086433e+01 1.2520221e+01
2.0097433e+01 9.5360870e+00
2.0108433e+01 1.9196564e+01
2.0119433e+01 1.8732006e+00
2.0130433e+01 2.7249302e+01
2.0141433e+01 2.2860917e+01
2.0152433e+01 1.0875127e+01
2.0163433e+01 1.7274824e+01
2.0174433e+01 3.4666747e+01
2.0185433e+01 7.4845619e+00
2.0196433e+01 1.9796649e+01
2.0207433e+01 6.1376956e+00
2.0218433e+01 1.1714687e+01
2.0229433e+01 7.7243648e+00
2.0240433e+01 2.7642231e+01
2.0251433e+01 5.7061034e-01
2.0262433e+01 -1.0682539e+01
2.0273433e+01 1.9128100e+01
2.0284433e+01 1.1650617e+01
2.0295433e+01 2.8818120e+00
2.0306433e+01 1.3790207e+00
2.0317433e+01 6.4331052e+00
2.0328433e+01 5.1629638e+00
2.0339433e+01 6.1643726e+00
2.0350433e+01 1.8741408e+01
2.0361433e+01 8.7018666e+00
2.0372433e+01 -9.5436883e+00
2.0383433e+01 1.3411974e+00
2.0394433e+01 4.4692236e+00
2.0405433e+01 6.6784566e+00
2.0416433e+01 -8.2943762e+00
2.0427433e+01 9.0352000e+00
2.0438433e+01 1.8830834e+01
2.0449433e+01 -1.0423343e+00
2.0460433e+01 7.4574728e-01
2.0471433e+01 2.0734110e+00
2.0482433e+01 1.2987960e+01
2.0493433e+01 -2.9205617e+00
2.0504433e+01 1.3881743e+01
2.0515433e+01 1.0988549e+01
2.0526433e+01 5.7971567e-01
2.0537433e+01 -3.6592765e+00
2.0548433e+01 4.0588747e-01
2.0559433e+01 -2.4573627e+00
2.0570433e+01 1.6223275e+01
2.0581433e+01 5.9102981e+00
2.0592433e+01 -4.2682810e+00
2.0603433e+01 -8.3198715e+00
2.0614433e+01 5.1716360e+00
2.0625433e+01 1.6896760e+01
2.0636433e+01 5.9068454e+00
2.0647433e+01 -3.4525665e+00
2.0658433e+01 1.7121085e+00
2.0669433e+01 9.6263109e+00
2.0680433e+01 9.7307896e+00
2.0691433e+01 6.1343898e+00
2.0702433e+01 3.2987861e+00
2.0713433e+01 -2.2097171e+00
2.0724433e+01 9.4545334e+00
2.0735433e+01 2.5647044e+00
2.0746433e+01 -3.6272206e+00
2.0757433e+01 -3.5672659e+00
2.0768433e+01 -1.3352032e+01
2.0779433e+01 -9.2671524e+00
2.0790433e+01 -5.9585632e+00
2.0801433e+01 7.3332568e-01
2.0812433e+01 -8.3304191e+00
2.0823433e+01 -1.1058367e+01
2.0834433e+01 -1.5309684e+01
2.0845433e+01 2.1186772e+00
2.0856433e+01 4.4068164e+00
2.0867433e+01 1.0410222e+00
2.0878433e+01 -2.9044263e-02
2.0889433e+01 9.3605304e+00
2.0900433e+01 1.0257141e+01
2.0911433e+01 -6.0363106e+00
2.0922433e+01 9.6889004e+00
2.0933433e+01 4.7290605e+00
2.0944433e+01 -6.2185426e+00
2.0955433e+01 -5.9156802e+00
2.0966433e+01 1.8169543e+00
2.0977433e+01 5.4817179e+00
2.0988433e+01 -3.9352552e+00
