# BG ROI:  6.00000,  21.00000 
# BG Params:  20,  10,  20 

1364
5.9954332e+00 1.3418222e+02
6.0064332e+00 1.2226096e+02
6.0174332e+00 1.0235671e+02
6.0284332e+00 1.2408650e+02
6.0394332e+00 1.1063587e+02
6.0504332e+00 1.2732512e+02
6.0614332e+00 1.1500762e+02
6.0724332e+00 1.0097336e+02
6.0834332e+00 8.2411170e+01
6.0944332e+00 1.0915396e+02
6.1054332e+00 1.0670728e+02
6.1164332e+00 1.1157526e+02
6.1274332e+00 1.2204968e+02
6.1384332e+00 8.7287177e+01
6.1494332e+00 7.1093376e+01
6.1604332e+00 9.4625916e+01
6.1714332e+00 9.7099554e+01
6.1824332e+00 9.6273281e+01
6.1934332e+00 9.6949364e+01
6.2044332e+00 8.4954686e+01
6.2154332e+00 7.7743456e+01
6.2264332e+00 7.0635697e+01
6.2374332e+00 6.3900282e+01
6.2484332e+00 6.4274629e+01
6.2594332e+00 5.7575817e+01
6.2704332e+00 6.7339692e+01
6.2814332e+00 9.8821849e+01
6.2924332e+00 1.1461369e+02
6.3034332e+00 1.1011879e+02
6.3144332e+00 1.0166110e+02
6.3254332e+00 8.4652009e+01
6.3364332e+00 6.0519226e+01
6.3474332e+00 7.3857500e+01
6.3584332e+00 6.5193280e+01
6.3694332e+00 5.6866216e+01
6.3804332e+00 6.2419403e+01
6.3914332e+00 8.5978120e+01
6.4024332e+00 5.3679330e+01
6.4134332e+00 4.9975777e+01
6.4244332e+00 6.0756562e+01
6.4354332e+00 5.7652366e+01
6.4464332e+00 6.1789307e+01
6.4574332e+00 5.2032964e+01
6.4684332e+00 4.0147163e+01
6.4794332e+00 5.1779651e+01
6.4904332e+00 5.5403623e+01
6.5014332e+00 6.4883678e+01
6.5124332e+00 5.5535640e+01
6.5234332e+00 7.1348969e+01
6.5344332e+00 4.7881364e+01
6.5454332e+00 6.5703397e+01
6.5564332e+00 4.4823561e+01
6.5674332e+00 2.3693945e+01
6.5784332e+00 4.0928778e+01
6.5894332e+00 5.6554277e+01
6.6004332e+00 6.5422169e+01
6.6114332e+00 5.7486411e+01
6.6224332e+00 5.6495953e+01
6.6334332e+00 3.7092551e+01
6.6444332e+00 3.5118071e+01
6.6554332e+00 9.3494521e+00
6.6664332e+00 4.3760345e+01
6.6774332e+00 1.3809047e+01
6.6884332e+00 2.3136905e+01
6.6994332e+00 5.5420525e+01
6.7104332e+00 5.1723964e+01
6.7214332e+00 3.3437778e+01
6.7324332e+00 3.1775006e+01
6.7434332e+00 5.0523906e+01
6.7544332e+00 4.7778531e+01
6.7654332e+00 3.3010542e+01
6.7764332e+00 2.9487567e+01
6.7874332e+00 5.0154705e+01
6.7984332e+00 4.5237298e+01
6.8094332e+00 3.8641123e+01
6.8204332e+00 5.5148702e+00
6.8314332e+00 2.0819365e+01
6.8424332e+00 3.8353218e+01
6.8534332e+00 9.5247341e+00
6.8644332e+00 5.2293529e+00
6.8754332e+00 1.0682141e+01
6.8864332e+00 1.2225009e+01
6.8974332e+00 2.1148717e+01
6.9084332e+00 -1.6788834e+01
6.9194332e+00 1.0438569e+01
6.9304332e+00 1.3764342e+01
6.9414332e+00 -2.1062318e+00
6.9524332e+00 1.7215939e+01
6.9634332e+00 1.4181971e+01
6.9744332e+00 6.6367999e+00
6.9854332e+00 3.9174537e+01
6.9964332e+00 2.8936140e+01
7.0074332e+00 2.1990677e+01
7.0184332e+00 1.4849801e+01
7.0294332e+00 3.2538342e+01
7.0404332e+00 1.4734618e+01
7.0514332e+00 1.6429616e+01
7.0624332e+00 4.0888589e+01
7.0734332e+00 1.1928565e+01
7.0844332e+00 -1.2544660e+00
7.0954332e+00 1.0408650e+01
7.1064332e+00 2.4224584e+01
7.1174332e+00 3.6904086e+01
7.1284332e+00 2.8424953e+01
7.1394332e+00 6.8720771e+00
7.1504332e+00 8.3339288e+00
7.1614332e+00 3.3703085e+01
7.1724332e+00 2.2355200e+01
7.1834332e+00 2.5337303e+01
7.1944332e+00 1.2365661e+01
7.2054332e+00 -2.2348318e+00
7.2164332e+00 1.6876493e+01
7.2274332e+00 2.3234871e+01
7.2384332e+00 8.2744944e+00
7.2494332e+00 9.5276598e+00
7.2604332e+00 4.2987004e+00
7.2714332e+00 4.1465550e+00
7.2824332e+00 1.0807167e+01
7.2934332e+00 -3.3709230e+00
7.3044332e+00 3.4598981e+00
7.3154332e+00 -9.2761994e-01
7.3264332e+00 -3.2418431e+00
7.3374332e+00 1.3886358e+01
7.3484332e+00 2.0339015e+01
7.3594332e+00 2.0792627e+01
7.3704332e+00 5.0534848e+00
7.3814332e+00 1.6451995e+01
7.3924332e+00 3.0822926e+01
7.4034332e+00 1.9572421e+01
7.4144332e+00 8.9866479e+00
7.4254332e+00 2.5090206e+01
7.4364332e+00 9.5044887e+00
7.4474332e+00 9.5334623e+00
7.4584332e+00 5.2803062e+00
7.4694332e+00 1.0595662e+01
7.4804332e+00 5.2700754e+00
7.4914332e+00 7.1993925e+00
7.5024332e+00 3.3934629e+00
7.5134332e+00 -2.2833616e+00
7.5244332e+00 2.8336725e+00
7.5354332e+00 8.0327008e+00
7.5464332e+00 3.4376706e+00
7.5574332e+00 2.8439011e+01
7.5684332e+00 2.5693552e+01
7.5794332e+00 -3.7087351e-01
7.5904332e+00 1.4366247e+01
7.6014332e+00 2.4359697e+01
7.6124332e+00 2.0226064e+01
7.6234332e+00 8.2191027e+00
7.6344332e+00 5.9101607e+00
7.6454332e+00 -1.2818440e+00
7.6564332e+00 1.1350637e+01
7.6674332e+00 2.4055933e+01
7.6784332e+00 1.1954435e+00
7.6894332e+00 3.5351888e+01
7.7004332e+00 2.4548828e+01
7.7114332e+00 -3.6471875e+00
7.7224332e+00 3.6051383e+01
7.7334332e+00 1.3495739e+01
7.7444332e+00 -2.7934577e+00
7.7554332e+00 4.6288029e+00
7.7664332e+00 1.9492641e+01
7.7774332e+00 -1.6310224e+00
7.7884332e+00 2.7603902e+01
7.7994332e+00 2.7168044e+01
7.8104332e+00 2.5738422e+01
7.8214332e+00 1.2450307e+01
7.8324332e+00 3.6602057e+00
7.8434332e+00 1.8563569e+00
7.8544332e+00 -1.1350542e+01
7.8654332e+00 -1.4914143e+00
7.8764332e+00 1.5458847e+01
7.8874332e+00 2.1287447e+01
7.8984332e+00 2.3805141e+01
7.9094332e+00 2.2709645e+01
7.9204332e+00 2.0588991e+01
7.9314332e+00 2.1860163e+01
7.9424332e+00 2.1002545e+01
7.9534332e+00 4.9675464e+00
7.9644332e+00 4.0855901e+00
7.9754332e+00 1.7250516e+01
7.9864332e+00 1.4262265e+01
7.9974332e+00 -2.8824751e+00
8.0084332e+00 9.2852548e+00
8.0194332e+00 -2.0098765e-01
8.0304332e+00 6.7507846e+00
8.0414332e+00 3.1793958e+01
8.0524332e+00 3.3985128e+01
8.0634332e+00 2.4274750e+01
8.0744332e+00 1.9145058e+01
8.0854332e+00 -2.9804735e+00
8.0964332e+00 1.2959578e+01
8.1074332e+00 2.1515375e+01
8.1184332e+00 1.7718499e+01
8.1294332e+00 1.5317212e+01
8.1404332e+00 1.4047585e+01
8.1514332e+00 2.3458798e+01
8.1624332e+00 2.2376850e+01
8.1734332e+00 2.2282621e+01
8.1844332e+00 1.5230199e+01
8.1954332e+00 1.5043664e+01
8.2064332e+00 1.8419172e+01
8.2174332e+00 2.0300740e+01
8.2284332e+00 2.5276898e+01
8.2394332e+00 2.3697219e+01
8.2504332e+00 1.7047012e+01
8.2614332e+00 2.0082962e+01
8.2724332e+00 2.4923065e+01
8.2834332e+00 4.0314660e+00
8.2944332e+00 -4.1217395e+00
8.3054332e+00 -4.8641675e-01
8.3164332e+00 2.1010749e+01
8.3274332e+00 1.0768463e+01
8.3384332e+00 6.1511483e+00
8.3494332e+00 5.3067602e+00
8.3604332e+00 2.5740783e+01
8.3714332e+00 1.4004809e+01
8.3824332e+00 1.6018335e+01
8.3934332e+00 1.3821622e+01
8.4044332e+00 6.4000062e+00
8.4154332e+00 -6.4274987e-01
8.4264332e+00 1.0609328e+01
8.4374332e+00 7.6680234e+00
8.4484332e+00 1.6067351e+01
8.4594332e+00 4.1187853e+01
8.4704332e+00 -4.4690248e+00
8.4814332e+00 1.0546271e+01
8.4924332e+00 2.7118574e+01
8.5034332e+00 2.7991339e+01
8.5144332e+00 2.7201981e+01
8.5254332e+00 3.0818727e+00
8.5364332e+00 2.2361190e+01
8.5474332e+00 9.4120573e+00
8.5584332e+00 1.5781779e+01
8.5694332e+00 3.4334711e+00
8.5804332e+00 1.8331818e+01
8.5914332e+00 3.1537755e+01
8.6024332e+00 1.9480568e+01
8.6134332e+00 3.0988516e+00
8.6244332e+00 3.6142823e+01
8.6354332e+00 3.3645007e+01
8.6464332e+00 1.9465330e+01
8.6574332e+00 4.5482793e+00
8.6684332e+00 1.3387950e+01
8.6794332e+00 1.6892469e+01
8.6904332e+00 1.5690694e+01
8.7014332e+00 2.4418320e+01
8.7124332e+00 1.9330596e+01
8.7234332e+00 3.1252958e+01
8.7344332e+00 1.2474613e+01
8.7454332e+00 1.8786079e+01
8.7564332e+00 1.4208094e+01
8.7674332e+00 7.1241747e+00
8.7784332e+00 2.0527939e+01
8.7894332e+00 2.6962664e+01
8.8004332e+00 9.9402987e+00
8.8114332e+00 2.2284230e+01
8.8224332e+00 5.8076131e-02
8.8334332e+00 1.2446105e+01
8.8444332e+00 5.5216736e+00
8.8554332e+00 -5.8190927e-01
8.8664332e+00 1.7142654e+01
8.8774332e+00 4.4747604e+00
8.8884332e+00 9.6014827e-01
8.8994332e+00 6.5604549e+00
8.9104332e+00 8.8751077e+00
8.9214332e+00 1.7033364e+01
8.9324332e+00 8.3671908e+00
8.9434332e+00 9.1622251e+00
8.9544332e+00 7.1087835e+00
8.9654332e+00 -6.0644973e+00
8.9764332e+00 -6.1185712e+00
8.9874332e+00 1.7789148e+01
8.9984332e+00 2.2916896e+01
9.0094332e+00 2.9619157e+01
9.0204332e+00 1.4978528e+01
9.0314332e+00 -1.8986575e+00
9.0424332e+00 1.8639965e+01
9.0534332e+00 2.9636180e+01
9.0644332e+00 8.5384594e+00
9.0754332e+00 1.9314448e+01
9.0864332e+00 2.6487117e+01
9.0974332e+00 3.2540449e+01
9.1084332e+00 3.8820946e+01
9.1194332e+00 1.8104029e+01
9.1304332e+00 7.5741268e+00
9.1414332e+00 1.9920981e+01
9.1524332e+00 2.0291120e+01
9.1634332e+00 1.5118252e+01
9.1744332e+00 2.1141326e+01
9.1854332e+00 6.5997677e+00
9.1964332e+00 1.1511375e+01
9.2074332e+00 2.3562423e+01
9.2184332e+00 1.1291307e+01
9.2294332e+00 4.5756915e+00
9.2404332e+00 1.3227239e+01
9.2514332e+00 2.2544404e+01
9.2624332e+00 7.3339965e+00
9.2734332e+00 3.4215485e+00
9.2844332e+00 2.0436340e+01
9.2954332e+00 2.2003740e+01
9.3064332e+00 1.4072668e+01
9.3174332e+00 1.8198710e+01
9.3284332e+00 1.2976243e+01
9.3394332e+00 8.1188366e-01
9.3504332e+00 1.2593586e+01
9.3614332e+00 1.8530743e+01
9.3724332e+00 2.7125378e+01
9.3834332e+00 2.0330754e+01
9.3944332e+00 1.2272310e+01
9.4054332e+00 8.9042960e+00
9.4164332e+00 6.9445114e+00
9.4274332e+00 -4.3415265e+00
9.4384332e+00 4.6322292e+00
9.4494332e+00 -2.4764461e+00
9.4604332e+00 9.1319322e+00
9.4714332e+00 1.6254477e+00
9.4824332e+00 2.5691453e+01
9.4934332e+00 2.3772419e+01
9.5044332e+00 1.8725766e+01
9.5154332e+00 9.0677343e+00
9.5264332e+00 8.1227910e+00
9.5374332e+00 2.2808314e+01
9.5484332e+00 1.2302798e+01
9.5594332e+00 -1.8347405e+00
9.5704332e+00 1.3706842e+01
9.5814332e+00 1.8677298e+01
9.5924332e+00 2.9616588e+00
9.6034332e+00 2.0290366e+01
9.6144332e+00 6.6074695e+00
9.6254332e+00 2.9571673e+00
9.6364332e+00 1.0335007e+01
9.6474332e+00 1.3711006e+01
9.6584332e+00 1.7315229e+01
9.6694332e+00 2.4610811e+01
9.6804332e+00 4.0815435e+01
9.6914332e+00 1.5281754e+01
9.7024332e+00 1.6485040e+01
9.7134332e+00 1.6266533e+01
9.7244332e+00 2.6577504e+01
9.7354332e+00 1.7918920e+01
9.7464332e+00 6.6547014e-01
9.7574332e+00 1.7701941e+01
9.7684332e+00 1.2286049e+01
9.7794332e+00 9.7825093e+00
9.7904332e+00 8.8786663e+00
9.8014332e+00 1.9945104e+01
9.8124332e+00 1.1053644e+01
9.8234332e+00 1.1988940e+01
9.8344332e+00 2.3595502e+01
9.8454332e+00 1.3623642e+01
9.8564332e+00 5.3328886e+00
9.8674332e+00 6.7645115e+00
9.8784332e+00 1.0485809e+01
9.8894332e+00 4.1044398e+00
9.9004332e+00 4.2103604e+00
9.9114332e+00 2.8357118e+01
9.9224332e+00 3.6410368e+01
9.9334332e+00 2.0366787e+01
9.9444332e+00 7.6721601e+00
9.9554332e+00 -2.8696686e+00
9.9664332e+00 2.8572755e+00
9.9774332e+00 1.6816576e+01
9.9884332e+00 2.7034717e+01
9.9994332e+00 1.4687691e+01
1.0010433e+01 7.4687284e+00
1.0021433e+01 1.1265617e+01
1.0032433e+01 2.2069526e+01
1.0043433e+01 3.1654783e+00
1.0054433e+01 1.4140645e+01
1.0065433e+01 4.4214781e+00
1.0076433e+01 1.4402499e+01
1.0087433e+01 1.6390219e+01
1.0098433e+01 -3.8635303e+00
1.0109433e+01 1.1097324e+00
1.0120433e+01 9.1520885e+00
1.0131433e+01 3.0068379e+01
1.0142433e+01 3.0153476e+01
1.0153433e+01 2.0159631e+01
1.0164433e+01 1.0928954e+01
1.0175433e+01 1.2819839e+01
1.0186433e+01 1.4849908e+01
1.0197433e+01 1.8389841e+01
1.0208433e+01 1.8492693e+01
1.0219433e+01 1.8426875e+01
1.0230433e+01 2.6928341e+01
1.0241433e+01 5.6985642e+00
1.0252433e+01 2.6417588e+00
1.0263433e+01 4.6432488e+00
1.0274433e+01 7.6676091e+00
1.0285433e+01 1.9812185e+01
1.0296433e+01 1.4840892e+01
1.0307433e+01 4.6761617e-01
1.0318433e+01 1.3103249e+00
1.0329433e+01 4.4239676e+01
1.0340433e+01 1.3962506e+01
1.0351433e+01 2.3449485e+01
1.0362433e+01 1.2995903e+01
1.0373433e+01 9.9405582e+00
1.0384433e+01 1.0327653e+01
1.0395433e+01 3.8938789e+01
1.0406433e+01 3.0860078e+01
1.0417433e+01 2.0918884e+01
1.0428433e+01 1.2489331e+01
1.0439433e+01 -2.4323550e-01
1.0450433e+01 1.4359720e+01
1.0461433e+01 -1.0339386e+01
1.0472433e+01 -1.5931046e+01
1.0483433e+01 1.2742441e+01
1.0494433e+01 1.9846813e+01
1.0505433e+01 1.9916461e+01
1.0516433e+01 1.9825987e+01
1.0527433e+01 1.5646654e+01
1.0538433e+01 5.1307265e+00
1.0549433e+01 2.9056809e+01
1.0560433e+01 1.4987958e+01
1.0571433e+01 1.5767281e+01
1.0582433e+01 3.3949276e+01
1.0593433e+01 3.0121053e+01
1.0604433e+01 2.7571112e+01
1.0615433e+01 1.3752327e+01
1.0626433e+01 1.7054020e+01
1.0637433e+01 1.7708215e+01
1.0648433e+01 7.2710481e+00
1.0659433e+01 1.8502017e+01
1.0670433e+01 2.1048618e+01
1.0681433e+01 1.5077583e+01
1.0692433e+01 1.1357261e+01
1.0703433e+01 4.5323045e+00
1.0714433e+01 1.6958077e+01
1.0725433e+01 2.2636082e+01
1.0736433e+01 1.9618457e+01
1.0747433e+01 1.0359477e+01
1.0758433e+01 3.7146429e+00
1.0769433e+01 8.4321827e+00
1.0780433e+01 1.6032808e+01
1.0791433e+01 2.2168881e+01
1.0802433e+01 9.7790053e+00
1.0813433e+01 1.2649376e+01
1.0824433e+01 3.1422969e+01
1.0835433e+01 2.1953313e+01
1.0846433e+01 1.4789225e+01
1.0857433e+01 2.5117406e+01
1.0868433e+01 1.5750598e+01
1.0879433e+01 1.4879163e+01
1.0890433e+01 2.3578245e+01
1.0901433e+01 2.0131589e+01
1.0912433e+01 8.4138622e+00
1.0923433e+01 8.9241213e+00
1.0934433e+01 5.9027458e+00
1.0945433e+01 3.6640055e+00
1.0956433e+01 9.9222320e+00
1.0967433e+01 1.4683858e+01
1.0978433e+01 1.0950396e+01
1.0989433e+01 8.6368529e+00
1.1000433e+01 2.1876973e+01
1.1011433e+01 1.9036524e+01
1.1022433e+01 6.8516149e+00
1.1033433e+01 2.7026814e+01
1.1044433e+01 1.0025142e+01
1.1055433e+01 1.2808500e+01
1.1066433e+01 1.0956422e+01
1.1077433e+01 6.9631102e+00
1.1088433e+01 7.8635295e+00
1.1099433e+01 4.1743954e+00
1.1110433e+01 8.0993445e+00
1.1121433e+01 5.7829241e+00
1.1132433e+01 1.4372223e+01
1.1143433e+01 1.0001449e+01
1.1154433e+01 1.1566504e+01
1.1165433e+01 4.8333474e+00
1.1176433e+01 1.9954012e+01
1.1187433e+01 1.0888639e+01
1.1198433e+01 8.7991331e+00
1.1209433e+01 1.4250387e+01
1.1220433e+01 1.4594956e+01
1.1231433e+01 1.1372359e+00
1.1242433e+01 7.2504715e+00
1.1253433e+01 -2.4109701e+00
1.1264433e+01 3.2980782e+00
1.1275433e+01 -2.7300659e+00
1.1286433e+01 -3.0336642e+00
1.1297433e+01 -1.5163738e+01
1.1308433e+01 7.0669717e+00
1.1319433e+01 7.6591247e+00
1.1330433e+01 1.7784281e+01
1.1341433e+01 1.8599906e+00
1.1352433e+01 3.4452744e+00
1.1363433e+01 1.8990973e+01
1.1374433e+01 1.2767138e+01
1.1385433e+01 1.4868691e+01
1.1396433e+01 2.3651624e+01
1.1407433e+01 2.0759068e+01
1.1418433e+01 -9.5488568e-01
1.1429433e+01 -2.8938137e+00
1.1440433e+01 1.9421596e+01
1.1451433e+01 1.8946744e+01
1.1462433e+01 1.3878365e+01
1.1473433e+01 1.4387589e+01
1.1484433e+01 1.6801878e+01
1.1495433e+01 7.6238058e+00
1.1506433e+01 2.6705426e+00
1.1517433e+01 1.2729730e+01
1.1528433e+01 1.8764511e+01
1.1539433e+01 5.5376246e+00
1.1550433e+01 1.4875443e+01
1.1561433e+01 5.4098168e+00
1.1572433e+01 -6.1053841e+00
1.1583433e+01 9.2259603e+00
1.1594433e+01 5.8529396e+00
1.1605433e+01 1.0257833e+01
1.1616433e+01 9.1415865e-01
1.1627433e+01 3.7095051e+00
1.1638433e+01 1.8155470e+01
1.1649433e+01 1.2901870e+01
1.1660433e+01 2.2006042e+01
1.1671433e+01 1.2484421e+01
1.1682433e+01 9.5803532e+00
1.1693433e+01 1.5349493e+01
1.1704433e+01 1.5085313e+01
1.1715433e+01 5.2437477e+00
1.1726433e+01 1.7429999e+01
1.1737433e+01 2.8663238e+01
1.1748433e+01 2.8624515e+01
1.1759433e+01 3.9521841e+01
1.1770433e+01 3.9608875e+01
1.1781433e+01 2.6235814e+01
1.1792433e+01 2.2656356e+01
1.1803433e+01 4.2528377e+01
1.1814433e+01 3.2323771e+01
1.1825433e+01 2.6716375e+01
1.1836433e+01 3.7449399e+01
1.1847433e+01 4.8108008e+01
1.1858433e+01 5.6951321e+01
1.1869433e+01 6.8709489e+01
1.1880433e+01 6.9912501e+01
1.1891433e+01 9.2608665e+01
1.1902433e+01 9.5532377e+01
1.1913433e+01 9.3017162e+01
1.1924433e+01 1.2473167e+02
1.1935433e+01 1.4818906e+02
1.1946433e+01 1.5456453e+02
1.1957433e+01 1.7680500e+02
1.1968433e+01 1.4663898e+02
1.1979433e+01 1.1809228e+02
1.1990433e+01 1.4472141e+02
1.2001433e+01 1.0659104e+02
1.2012433e+01 6.8168110e+01
1.2023433e+01 2.9563087e+01
1.2034433e+01 1.9997296e+01
1.2045433e+01 3.8215904e-01
1.2056433e+01 1.4162774e+01
1.2067433e+01 2.1847858e+01
1.2078433e+01 2.0731998e+01
1.2089433e+01 1.5999589e+01
1.2100433e+01 1.3762714e+01
1.2111433e+01 2.3062706e+01
1.2122433e+01 -1.0503552e+00
1.2133433e+01 6.5377032e-01
1.2144433e+01 4.7207004e+00
1.2155433e+01 -4.0334283e+00
1.2166433e+01 2.9150494e+00
1.2177433e+01 -5.8444026e+00
1.2188433e+01 5.8730079e+00
1.2199433e+01 -9.5327782e-01
1.2210433e+01 -2.3498403e+00
1.2221433e+01 6.8976588e+00
1.2232433e+01 1.4314256e+01
1.2243433e+01 -7.2493424e+00
1.2254433e+01 2.7108767e+01
1.2265433e+01 2.3930067e+01
1.2276433e+01 2.9419019e+01
1.2287433e+01 4.4947193e+01
1.2298433e+01 2.2060507e+01
1.2309433e+01 2.4450980e+01
1.2320433e+01 7.1953627e-01
1.2331433e+01 4.0017912e+00
1.2342433e+01 2.0520838e+01
1.2353433e+01 7.6977184e+00
1.2364433e+01 3.6841953e+01
1.2375433e+01 5.1381282e+01
1.2386433e+01 3.5750393e+01
1.2397433e+01 2.7253033e+01
1.2408433e+01 2.4321858e+01
1.2419433e+01 3.6665712e+01
1.2430433e+01 4.2672558e+01
1.2441433e+01 5.3974059e+01
1.2452433e+01 5.0674454e+01
1.2463433e+01 4.3959595e+01
1.2474433e+01 4.5580569e+01
1.2485433e+01 3.0179514e+01
1.2496433e+01 3.9300716e+01
1.2507433e+01 7.1048611e+01
1.2518433e+01 8.7899853e+01
1.2529433e+01 1.2015947e+02
1.2540433e+01 1.3613341e+02
1.2551433e+01 1.4130819e+02
1.2562433e+01 1.3606599e+02
1.2573433e+01 1.4603541e+02
1.2584433e+01 1.7539746e+02
1.2595433e+01 2.4303102e+02
1.2606433e+01 2.9147880e+02
1.2617433e+01 3.2907722e+02
1.2628433e+01 3.7303993e+02
1.2639433e+01 4.0661821e+02
1.2650433e+01 4.0766145e+02
1.2661433e+01 3.7773320e+02
1.2672433e+01 3.3134656e+02
1.2683433e+01 2.6919279e+02
1.2694433e+01 2.1067304e+02
1.2705433e+01 1.5660134e+02
1.2716433e+01 9.1034217e+01
1.2727433e+01 4.9123604e+01
1.2738433e+01 3.0513394e+01
1.2749433e+01 1.6465105e+01
1.2760433e+01 1.9461043e+01
1.2771433e+01 1.6561534e+01
1.2782433e+01 1.6979015e+01
1.2793433e+01 1.7321022e+01
1.2804433e+01 1.2055085e+00
1.2815433e+01 1.6918180e+01
1.2826433e+01 1.5710972e+01
1.2837433e+01 -5.5128626e+00
1.2848433e+01 1.3149820e+01
1.2859433e+01 7.7297048e+00
1.2870433e+01 1.6730424e+01
1.2881433e+01 1.5521451e+01
1.2892433e+01 4.7753995e+00
1.2903433e+01 1.5106782e+01
1.2914433e+01 5.3782513e+00
1.2925433e+01 9.9394604e+00
1.2936433e+01 2.1691432e+01
1.2947433e+01 2.6178359e+01
1.2958433e+01 1.1693714e+01
1.2969433e+01 7.2743505e+00
1.2980433e+01 -1.9318595e+00
1.2991433e+01 -7.6711255e-01
1.3002433e+01 1.7370784e+01
1.3013433e+01 9.3238850e+00
1.3024433e+01 1.9573082e+01
1.3035433e+01 1.2439751e+01
1.3046433e+01 1.5382113e+01
1.3057433e+01 6.8029540e-01
1.3068433e+01 1.7797431e+01
1.3079433e+01 1.2965475e+01
1.3090433e+01 8.3775629e+00
1.3101433e+01 -1.5239081e+01
1.3112433e+01 1.1673783e+01
1.3123433e+01 1.1243078e+01
1.3134433e+01 3.1693424e+00
1.3145433e+01 5.7224130e+00
1.3156433e+01 1.9604258e+01
1.3167433e+01 2.1060716e+01
1.3178433e+01 2.1788327e+01
1.3189433e+01 5.6499388e+00
1.3200433e+01 -5.5540840e+00
1.3211433e+01 1.2186900e+01
1.3222433e+01 1.5347872e+01
1.3233433e+01 1.1198150e+01
1.3244433e+01 7.2645802e-01
1.3255433e+01 5.2704293e+00
1.3266433e+01 8.5822182e+00
1.3277433e+01 2.0119699e+00
1.3288433e+01 1.4236380e+01
1.3299433e+01 -3.9040839e+00
1.3310433e+01 5.0376848e+00
1.3321433e+01 5.5986947e+00
1.3332433e+01 1.2438015e+01
1.3343433e+01 5.2407157e+00
1.3354433e+01 2.4766038e+01
1.3365433e+01 1.9672533e+01
1.3376433e+01 2.7922104e+01
1.3387433e+01 1.7725725e+01
1.3398433e+01 1.3429520e+01
1.3409433e+01 2.0985144e+01
1.3420433e+01 1.0463445e+01
1.3431433e+01 5.5134095e+00
1.3442433e+01 1.9589656e+01
1.3453433e+01 9.4930239e+00
1.3464433e+01 -1.3515051e+00
1.3475433e+01 8.2602674e+00
1.3486433e+01 1.0332937e+01
1.3497433e+01 1.8281816e+01
1.3508433e+01 1.4958429e+01
1.3519433e+01 8.7603235e-01
1.3530433e+01 -3.4825487e+00
1.3541433e+01 1.0088083e+01
1.3552433e+01 1.5899109e+01
1.3563433e+01 1.7627588e+01
1.3574433e+01 2.6151510e+01
1.3585433e+01 1.8225988e+01
1.3596433e+01 5.5054843e+00
1.3607433e+01 2.8458637e+00
1.3618433e+01 1.2347431e+01
1.3629433e+01 1.1768213e+01
1.3640433e+01 2.3184047e+01
1.3651433e+01 2.2155211e+01
1.3662433e+01 1.6194654e+01
1.3673433e+01 1.8414868e+01
1.3684433e+01 8.6417848e+00
1.3695433e+01 7.4821561e+00
1.3706433e+01 1.6281056e+01
1.3717433e+01 1.2572370e+01
1.3728433e+01 1.7773103e+01
1.3739433e+01 6.7612031e+00
1.3750433e+01 1.5656288e+01
1.3761433e+01 2.6711416e+01
1.3772433e+01 1.7628189e+01
1.3783433e+01 1.7307866e+01
1.3794433e+01 1.8812811e+01
1.3805433e+01 1.4102237e+01
1.3816433e+01 3.6867956e+01
1.3827433e+01 7.8673862e+00
1.3838433e+01 1.6323072e+01
1.3849433e+01 7.9220507e+00
1.3860433e+01 2.3594231e+01
1.3871433e+01 7.5650906e+00
1.3882433e+01 1.6815681e+01
1.3893433e+01 -2.6065131e+00
1.3904433e+01 -5.9195793e+00
1.3915433e+01 1.6035705e+01
1.3926433e+01 2.8753903e+01
1.3937433e+01 -2.1514205e+00
1.3948433e+01 8.2181746e+00
1.3959433e+01 2.1298539e+01
1.3970433e+01 5.2983244e+00
1.3981433e+01 -2.8532792e+00
1.3992433e+01 1.7181384e+01
1.4003433e+01 8.3184340e+00
1.4014433e+01 1.9405821e+01
1.4025433e+01 1.6141346e+01
1.4036433e+01 2.9776590e+01
1.4047433e+01 1.1099395e+01
1.4058433e+01 2.8721164e+01
1.4069433e+01 1.9178960e+01
1.4080433e+01 1.8426988e+01
1.4091433e+01 8.6211927e+00
1.4102433e+01 1.0064879e+01
1.4113433e+01 5.8628564e+00
1.4124433e+01 1.3698960e+01
1.4135433e+01 1.4361349e+01
1.4146433e+01 7.4223158e+00
1.4157433e+01 4.1514025e+00
1.4168433e+01 2.7406328e+01
1.4179433e+01 1.3035401e+01
1.4190433e+01 1.1679369e+00
1.4201433e+01 9.7591660e+00
1.4212433e+01 1.7791378e+01
1.4223433e+01 1.0404345e+01
1.4234433e+01 1.4422526e+01
1.4245433e+01 1.8608423e+01
1.4256433e+01 1.6246428e+01
1.4267433e+01 2.6365772e+01
1.4278433e+01 7.2293358e+00
1.4289433e+01 3.0395033e+00
1.4300433e+01 7.1384123e-01
1.4311433e+01 1.1146058e+01
1.4322433e+01 1.7082115e+01
1.4333433e+01 2.0041618e+01
1.4344433e+01 1.4284278e+01
1.4355433e+01 1.2047060e+01
1.4366433e+01 1.4366868e+01
1.4377433e+01 1.0009194e+01
1.4388433e+01 1.1793752e+01
1.4399433e+01 2.4609796e+01
1.4410433e+01 1.6967749e+01
1.4421433e+01 1.9147995e+01
1.4432433e+01 2.9111027e+01
1.4443433e+01 2.7647599e+01
1.4454433e+01 3.7810314e+01
1.4465433e+01 3.4245616e+01
1.4476433e+01 2.6983208e+01
1.4487433e+01 1.9324842e+01
1.4498433e+01 1.6903422e+01
1.4509433e+01 1.9271961e+01
1.4520433e+01 1.5492490e+01
1.4531433e+01 8.7853028e+00
1.4542433e+01 6.3038309e+00
1.4553433e+01 1.8348996e+01
1.4564433e+01 1.2747170e+01
1.4575433e+01 4.5590267e+00
1.4586433e+01 1.4628680e+01
1.4597433e+01 1.7913308e+01
1.4608433e+01 2.6848167e+01
1.4619433e+01 1.0320559e+01
1.4630433e+01 2.9786023e+01
1.4641433e+01 1.3070168e+01
1.4652433e+01 1.5517583e+01
1.4663433e+01 1.6811377e+01
1.4674433e+01 -1.2536542e+01
1.4685433e+01 8.9730630e+00
1.4696433e+01 1.7072440e+01
1.4707433e+01 5.6526506e+00
1.4718433e+01 2.5765832e+00
1.4729433e+01 1.5416004e+01
1.4740433e+01 9.5454898e+00
1.4751433e+01 2.2688906e+01
1.4762433e+01 2.2653907e+01
1.4773433e+01 2.3476570e+00
1.4784433e+01 1.3447757e+01
1.4795433e+01 6.9687882e+00
1.4806433e+01 1.2197064e+01
1.4817433e+01 2.0206284e+01
1.4828433e+01 2.4409442e+01
1.4839433e+01 2.7479160e+01
1.4850433e+01 6.5201344e+00
1.4861433e+01 -2.8808717e-01
1.4872433e+01 1.3241705e+01
1.4883433e+01 1.8141876e+00
1.4894433e+01 8.7616324e+00
1.4905433e+01 1.2759611e+01
1.4916433e+01 1.5436436e+01
1.4927433e+01 1.1865871e+01
1.4938433e+01 -5.4033115e+00
1.4949433e+01 5.5098195e+00
1.4960433e+01 2.0140167e+01
1.4971433e+01 1.9089649e+01
1.4982433e+01 3.1701249e+01
1.4993433e+01 1.4675291e+01
1.5004433e+01 1.6243224e+01
1.5015433e+01 1.9453690e+01
1.5026433e+01 6.4386627e+00
1.5037433e+01 2.1150609e+01
1.5048433e+01 -6.8107261e+00
1.5059433e+01 4.5596882e+00
1.5070433e+01 -6.2540871e+00
1.5081433e+01 7.7222388e+00
1.5092433e+01 2.1827901e+01
1.5103433e+01 2.2980389e+01
1.5114433e+01 2.5276995e+01
1.5125433e+01 2.2350004e+01
1.5136433e+01 1.9550460e+01
1.5147433e+01 2.0600064e+01
1.5158433e+01 1.8231871e+01
1.5169433e+01 7.8396643e+00
1.5180433e+01 1.0878866e+01
1.5191433e+01 1.8950847e+01
1.5202433e+01 3.4101664e+00
1.5213433e+01 2.3422455e+01
1.5224433e+01 1.3501290e+01
1.5235433e+01 9.2837987e+00
1.5246433e+01 9.0570194e+00
1.5257433e+01 1.5201594e+01
1.5268433e+01 2.6746865e+01
1.5279433e+01 2.2884677e+01
1.5290433e+01 1.1399166e+01
1.5301433e+01 5.8257892e+00
1.5312433e+01 1.0918135e+01
1.5323433e+01 7.5469007e+00
1.5334433e+01 1.7554389e+01
1.5345433e+01 2.1573103e+01
1.5356433e+01 1.4463648e+01
1.5367433e+01 7.5592033e+00
1.5378433e+01 6.6646801e+00
1.5389433e+01 1.3785387e+01
1.5400433e+01 6.1455100e+00
1.5411433e+01 1.4693065e+01
1.5422433e+01 1.7276871e+01
1.5433433e+01 2.0880918e+01
1.5444433e+01 2.6075356e+01
1.5455433e+01 1.0548496e+01
1.5466433e+01 9.7104881e+00
1.5477433e+01 9.4262684e-01
1.5488433e+01 4.4604434e+00
1.5499433e+01 1.4470263e+01
1.5510433e+01 6.6476092e+00
1.5521433e+01 1.0521599e+01
1.5532433e+01 2.5260238e+01
1.5543433e+01 1.5153555e+01
1.5554433e+01 8.7803432e+00
1.5565433e+01 1.2180327e+01
1.5576433e+01 1.4036857e+01
1.5587433e+01 4.3794355e+00
1.5598433e+01 3.3252407e+01
1.5609433e+01 1.2198230e+01
1.5620433e+01 3.0913922e+00
1.5631433e+01 1.5658955e+00
1.5642433e+01 1.3878915e+01
1.5653433e+01 2.7197049e+01
1.5664433e+01 1.2189889e+01
1.5675433e+01 1.4303962e+01
1.5686433e+01 1.3724474e+01
1.5697433e+01 2.8854139e+01
1.5708433e+01 -6.7010134e+00
1.5719433e+01 9.2800617e+00
1.5730433e+01 1.0822103e+01
1.5741433e+01 1.7855942e+01
1.5752433e+01 2.3928700e+01
1.5763433e+01 2.4283786e+01
1.5774433e+01 3.8821774e+01
1.5785433e+01 3.1753130e+01
1.5796433e+01 4.2829530e+00
1.5807433e+01 8.7616554e+00
1.5818433e+01 2.8723548e+01
1.5829433e+01 1.2341405e+01
1.5840433e+01 1.1052091e+01
1.5851433e+01 -6.7101171e+00
1.5862433e+01 2.7463832e+00
1.5873433e+01 1.7424005e+01
1.5884433e+01 1.2253544e+01
1.5895433e+01 1.6855843e+01
1.5906433e+01 1.9286468e+01
1.5917433e+01 1.9911637e+01
1.5928433e+01 9.0647801e+00
1.5939433e+01 1.0482257e+01
1.5950433e+01 1.5713809e+01
1.5961433e+01 2.6596947e+01
1.5972433e+01 8.8327492e-01
1.5983433e+01 1.1476106e+01
1.5994433e+01 1.1739809e+01
1.6005433e+01 6.7397137e-01
1.6016433e+01 6.9855186e+00
1.6027433e+01 1.4845379e+01
1.6038433e+01 3.7428739e-01
1.6049433e+01 1.2921578e+01
1.6060433e+01 1.9950352e+01
1.6071433e+01 1.4046790e+01
1.6082433e+01 1.6133572e+01
1.6093433e+01 1.8979198e+01
1.6104433e+01 2.6749749e+01
1.6115433e+01 2.5319426e+01
1.6126433e+01 1.4331250e+01
1.6137433e+01 7.8560997e+00
1.6148433e+01 1.8920888e+01
1.6159433e+01 2.1845675e+01
1.6170433e+01 2.0442748e+01
1.6181433e+01 2.4117109e+01
1.6192433e+01 8.1681504e+00
1.6203433e+01 1.1686081e+01
1.6214433e+01 3.1269312e+01
1.6225433e+01 2.5876798e+01
1.6236433e+01 1.8623079e+01
1.6247433e+01 2.3032690e+01
1.6258433e+01 1.9286966e+01
1.6269433e+01 8.2409965e+00
1.6280433e+01 2.2316610e+01
1.6291433e+01 1.8124189e+01
1.6302433e+01 1.8001833e+01
1.6313433e+01 1.8988078e+01
1.6324433e+01 7.6863321e+00
1.6335433e+01 8.4156701e+00
1.6346433e+01 9.1543521e+00
1.6357433e+01 8.8877131e+00
1.6368433e+01 1.6898922e+01
1.6379433e+01 1.8849660e+01
1.6390433e+01 1.7577768e+01
1.6401433e+01 1.2928820e+01
1.6412433e+01 1.3598039e+01
1.6423433e+01 2.9552960e+01
1.6434433e+01 1.8241832e+01
1.6445433e+01 1.8928423e+01
1.6456433e+01 1.1733455e+01
1.6467433e+01 7.0847848e+00
1.6478433e+01 -8.4164998e-01
1.6489433e+01 3.3848939e+00
1.6500433e+01 2.0563619e+00
1.6511433e+01 1.3605499e+01
1.6522433e+01 5.2165369e+00
1.6533433e+01 -3.3812805e+00
1.6544433e+01 2.2491508e+01
1.6555433e+01 1.8471855e+01
1.6566433e+01 1.7740917e+01
1.6577433e+01 6.6024090e+00
1.6588433e+01 3.0292447e+01
1.6599433e+01 3.1677027e+00
1.6610433e+01 2.2141525e+01
1.6621433e+01 -6.4929943e-01
1.6632433e+01 1.0776395e+01
1.6643433e+01 -1.9881711e+00
1.6654433e+01 2.6788500e+01
1.6665433e+01 1.8396630e+01
1.6676433e+01 7.7432831e-01
1.6687433e+01 1.9340234e+01
1.6698433e+01 8.5847523e+00
1.6709433e+01 1.4451123e+01
1.6720433e+01 -1.3448226e+01
1.6731433e+01 1.2459094e+01
1.6742433e+01 1.5837986e+01
1.6753433e+01 1.4591096e+01
1.6764433e+01 1.7682491e+01
1.6775433e+01 1.4964223e+01
1.6786433e+01 1.6750473e+01
1.6797433e+01 2.7329703e+01
1.6808433e+01 1.2842219e+01
1.6819433e+01 7.9767266e+00
1.6830433e+01 1.2678148e+01
1.6841433e+01 1.6399761e+01
1.6852433e+01 1.5913071e+01
1.6863433e+01 2.9980401e+01
1.6874433e+01 1.9072500e+01
1.6885433e+01 2.1780630e+01
1.6896433e+01 1.4687492e+01
1.6907433e+01 1.9249828e+01
1.6918433e+01 2.4567748e+01
1.6929433e+01 4.6444997e+00
1.6940433e+01 6.9946569e+00
1.6951433e+01 1.1873347e+01
1.6962433e+01 6.5977880e+00
1.6973433e+01 6.8173957e+00
1.6984433e+01 6.6398050e+00
1.6995433e+01 5.5198708e+00
1.7006433e+01 1.2396544e+01
1.7017433e+01 1.7464552e+01
1.7028433e+01 2.0361552e+01
1.7039433e+01 1.2331862e+01
1.7050433e+01 8.7944925e+00
1.7061433e+01 3.6607017e+00
1.7072433e+01 -6.2683255e+00
1.7083433e+01 1.8552653e+00
1.7094433e+01 1.9610257e+01
1.7105433e+01 2.4030396e+01
1.7116433e+01 1.4331281e+01
1.7127433e+01 1.1219729e+01
1.7138433e+01 4.3875129e+00
1.7149433e+01 1.1219660e+01
1.7160433e+01 1.9403818e+01
1.7171433e+01 2.5937682e+01
1.7182433e+01 2.1312274e+01
1.7193433e+01 1.7879274e+01
1.7204433e+01 9.9433408e+00
1.7215433e+01 1.2121158e+01
1.7226433e+01 1.9193560e-02
1.7237433e+01 8.0930110e+00
1.7248433e+01 6.8806050e+00
1.7259433e+01 1.1396545e+01
1.7270433e+01 1.9621947e+01
1.7281433e+01 1.7807612e+01
1.7292433e+01 1.7846398e+01
1.7303433e+01 5.0391175e+00
1.7314433e+01 8.6705699e+00
1.7325433e+01 2.1333040e+01
1.7336433e+01 1.6587488e+01
1.7347433e+01 1.5945840e+01
1.7358433e+01 9.9360006e+00
1.7369433e+01 -7.1351938e+00
1.7380433e+01 2.9062798e+01
1.7391433e+01 1.5505943e+01
1.7402433e+01 2.1555599e+01
1.7413433e+01 2.5052180e+01
1.7424433e+01 1.2166348e+01
1.7435433e+01 1.9195660e+01
1.7446433e+01 9.4835906e+00
1.7457433e+01 1.3769261e+01
1.7468433e+01 1.7981757e+01
1.7479433e+01 1.4516381e+01
1.7490433e+01 3.8043300e+00
1.7501433e+01 1.1911046e+01
1.7512433e+01 -3.3627275e+00
1.7523433e+01 1.9917844e+01
1.7534433e+01 1.1217099e+01
1.7545433e+01 8.2712645e+00
1.7556433e+01 1.4139693e+01
1.7567433e+01 1.1811129e+01
1.7578433e+01 2.9405171e+00
1.7589433e+01 1.8026228e+01
1.7600433e+01 1.5694737e+01
1.7611433e+01 1.0205635e+01
1.7622433e+01 1.1594789e+01
1.7633433e+01 1.5319898e+01
1.7644433e+01 8.9533139e+00
1.7655433e+01 9.4075043e+00
1.7666433e+01 1.9073785e+01
1.7677433e+01 2.4710296e+01
1.7688433e+01 2.3184348e+01
1.7699433e+01 2.2157630e+01
1.7710433e+01 1.0644949e+01
1.7721433e+01 2.9831189e-01
1.7732433e+01 1.4270458e+01
1.7743433e+01 1.9394824e+01
1.7754433e+01 2.2383337e+01
1.7765433e+01 2.0453222e+01
1.7776433e+01 7.0044204e+00
1.7787433e+01 2.0858199e+01
1.7798433e+01 2.2018190e+01
1.7809433e+01 2.4822108e+01
1.7820433e+01 2.8313769e+01
1.7831433e+01 2.9489618e+01
1.7842433e+01 1.3330683e+01
1.7853433e+01 2.1215248e+00
1.7864433e+01 -1.1141491e+00
1.7875433e+01 6.1898900e+00
1.7886433e+01 6.0505312e+00
1.7897433e+01 1.5346783e+01
1.7908433e+01 1.6560892e+01
1.7919433e+01 2.7712149e+00
1.7930433e+01 1.2205877e+01
1.7941433e+01 3.1510692e+01
1.7952433e+01 2.0453295e+01
1.7963433e+01 9.4394287e+00
1.7974433e+01 1.0092796e+01
1.7985433e+01 7.0276000e+00
1.7996433e+01 1.0123880e+01
1.8007433e+01 5.5762744e+00
1.8018433e+01 8.2055391e+00
1.8029433e+01 1.7568510e+01
1.8040433e+01 9.9735604e+00
1.8051433e+01 1.2088969e+01
1.8062433e+01 3.6785195e+00
1.8073433e+01 5.4357816e+00
1.8084433e+01 8.4730281e+00
1.8095433e+01 1.8524587e+01
1.8106433e+01 2.5079916e+01
1.8117433e+01 1.1325010e+01
1.8128433e+01 7.6468983e+00
1.8139433e+01 7.9672710e+00
1.8150433e+01 1.8999161e+01
1.8161433e+01 1.4493656e+01
1.8172433e+01 2.4480199e+00
1.8183433e+01 2.4638100e+01
1.8194433e+01 1.8379004e+00
1.8205433e+01 1.0486092e+01
1.8216433e+01 1.4201626e+01
1.8227433e+01 7.0496945e+00
1.8238433e+01 6.8061163e+00
1.8249433e+01 1.4413843e+01
1.8260433e+01 6.4942813e+00
1.8271433e+01 1.8209870e+01
1.8282433e+01 9.5210527e+00
1.8293433e+01 1.4841090e+01
1.8304433e+01 1.7930879e+01
1.8315433e+01 1.4721679e+01
1.8326433e+01 2.1286314e+01
1.8337433e+01 1.1450656e+01
1.8348433e+01 6.5776858e+00
1.8359433e+01 2.3722462e+01
1.8370433e+01 -5.5886462e+00
1.8381433e+01 1.8712144e+01
1.8392433e+01 3.9396831e+01
1.8403433e+01 9.1837692e+00
1.8414433e+01 1.9059021e+01
1.8425433e+01 -9.5997111e+00
1.8436433e+01 -1.5103047e+00
1.8447433e+01 2.7788435e+01
1.8458433e+01 3.5486951e+00
1.8469433e+01 1.0953067e+01
1.8480433e+01 3.6049822e+00
1.8491433e+01 7.9945022e+00
1.8502433e+01 4.0052183e+00
1.8513433e+01 1.0907924e+01
1.8524433e+01 7.4520062e+00
1.8535433e+01 1.6298114e+01
1.8546433e+01 1.4135609e+01
1.8557433e+01 5.6046288e+00
1.8568433e+01 5.7124830e+00
1.8579433e+01 1.1784945e+00
1.8590433e+01 4.3726251e-01
1.8601433e+01 6.8693051e+00
1.8612433e+01 1.8434276e+01
1.8623433e+01 2.4763445e+01
1.8634433e+01 1.7316991e+01
1.8645433e+01 4.6210602e+00
1.8656433e+01 8.1960947e+00
1.8667433e+01 4.7458178e+00
1.8678433e+01 1.6077797e+01
1.8689433e+01 1.3646876e+01
1.8700433e+01 8.2952840e+00
1.8711433e+01 9.5110373e+00
1.8722433e+01 1.9186858e+00
1.8733433e+01 1.2495834e+00
1.8744433e+01 1.2683122e-01
1.8755433e+01 8.5368222e+00
1.8766433e+01 5.0285546e+00
1.8777433e+01 1.6233916e+01
1.8788433e+01 1.1218967e+01
1.8799433e+01 9.5086958e+00
1.8810433e+01 8.3409607e+00
1.8821433e+01 2.6164813e+00
1.8832433e+01 1.7658717e+00
1.8843433e+01 1.1323019e+01
1.8854433e+01 1.5298575e+01
1.8865433e+01 8.5953395e+00
1.8876433e+01 9.1177777e+00
1.8887433e+01 5.5600071e+00
1.8898433e+01 3.8675104e+00
1.8909433e+01 8.3867263e+00
1.8920433e+01 7.0915747e+00
1.8931433e+01 6.5675878e+00
1.8942433e+01 1.9968081e+01
1.8953433e+01 2.7823855e+01
1.8964433e+01 1.9282443e+01
1.8975433e+01 2.2027237e+01
1.8986433e+01 1.5961089e+01
1.8997433e+01 4.7699947e+00
1.9008433e+01 8.0816293e+00
1.9019433e+01 1.5927823e+01
1.9030433e+01 2.5751030e+01
1.9041433e+01 2.4637649e+01
1.9052433e+01 1.4820710e+01
1.9063433e+01 -1.2190684e+00
1.9074433e+01 7.9799935e+00
1.9085433e+01 1.3624560e+01
1.9096433e+01 2.2611511e+01
1.9107433e+01 7.5502173e+00
1.9118433e+01 2.0234407e+01
1.9129433e+01 1.6433525e+01
1.9140433e+01 1.5446714e+01
1.9151433e+01 8.6453915e+00
1.9162433e+01 6.9440346e+00
1.9173433e+01 6.9845743e+00
1.9184433e+01 8.7099195e+00
1.9195433e+01 8.2055133e+00
1.9206433e+01 6.3611595e+00
1.9217433e+01 1.7303505e+00
1.9228433e+01 3.8395796e+00
1.9239433e+01 2.6808235e+01
1.9250433e+01 1.0882367e+01
1.9261433e+01 -5.6207394e+00
1.9272433e+01 8.0221001e-01
1.9283433e+01 9.8757122e+00
1.9294433e+01 1.2242790e+01
1.9305433e+01 1.9175780e+01
1.9316433e+01 2.4999758e+00
1.9327433e+01 2.6311302e+01
1.9338433e+01 1.2376608e+01
1.9349433e+01 1.3505012e+01
1.9360433e+01 1.8091707e+01
1.9371433e+01 1.0745338e+01
1.9382433e+01 1.4090888e-01
1.9393433e+01 1.2205958e+01
1.9404433e+01 2.0840617e+01
1.9415433e+01 8.5824305e+00
1.9426433e+01 3.5281968e+01
1.9437433e+01 1.9685395e+01
1.9448433e+01 2.0351893e+01
1.9459433e+01 9.1635932e+00
1.9470433e+01 1.6836176e+01
1.9481433e+01 2.6524879e+01
1.9492433e+01 7.2918370e+00
1.9503433e+01 3.2373213e-01
1.9514433e+01 9.5335075e+00
1.9525433e+01 2.0881172e+01
1.9536433e+01 4.8798206e+00
1.9547433e+01 9.9396669e+00
1.9558433e+01 6.6168899e+00
1.9569433e+01 3.3573398e+00
1.9580433e+01 -9.6131450e-01
1.9591433e+01 8.8570069e+00
1.9602433e+01 1.4581682e+01
1.9613433e+01 8.1199968e+00
1.9624433e+01 1.0448166e+01
1.9635433e+01 9.0852679e-01
1.9646433e+01 -3.9089218e+00
1.9657433e+01 3.2937301e+00
1.9668433e+01 1.1648766e+01
1.9679433e+01 1.0054473e+01
1.9690433e+01 4.7351731e+00
1.9701433e+01 1.0865879e+01
1.9712433e+01 1.6843844e+01
1.9723433e+01 6.6927880e+00
1.9734433e+01 -4.9681444e+00
1.9745433e+01 -4.6852162e+00
1.9756433e+01 -2.2960688e+00
1.9767433e+01 1.1995906e+01
1.9778433e+01 2.1464947e+01
1.9789433e+01 1.4772143e+01
1.9800433e+01 1.4416066e+01
1.9811433e+01 8.4714465e+00
1.9822433e+01 -5.7340306e+00
1.9833433e+01 -3.1156780e+00
1.9844433e+01 6.7055316e+00
1.9855433e+01 2.2719551e+01
1.9866433e+01 1.8626411e+01
1.9877433e+01 6.7106943e+00
1.9888433e+01 -2.2739623e+00
1.9899433e+01 -7.1152183e-02
1.9910433e+01 9.9046987e+00
1.9921433e+01 1.1879425e+01
1.9932433e+01 1.3100544e+01
1.9943433e+01 2.4973797e+01
1.9954433e+01 1.7099497e+01
1.9965433e+01 1.3759762e+01
1.9976433e+01 1.2276581e+01
1.9987433e+01 1.9454055e+01
1.9998433e+01 4.8457750e+00
2.0009433e+01 1.8131669e+01
2.0020433e+01 2.4633052e+01
2.0031433e+01 1.6809481e+01
2.0042433e+01 3.4602215e+01
2.0053433e+01 4.8362193e+01
2.0064433e+01 2.8770568e+01
2.0075433e+01 2.9143834e+01
2.0086433e+01 4.7837400e+01
2.0097433e+01 4.5641411e+01
2.0108433e+01 7.0071510e+01
2.0119433e+01 6.0218933e+01
2.0130433e+01 8.6304473e+01
2.0141433e+01 7.4661155e+01
2.0152433e+01 9.2546160e+01
2.0163433e+01 9.8678041e+01
2.0174433e+01 9.0317624e+01
2.0185433e+01 7.1462057e+01
2.0196433e+01 6.6711769e+01
2.0207433e+01 6.3525453e+01
2.0218433e+01 4.9384009e+01
2.0229433e+01 6.2877489e+01
2.0240433e+01 2.8875766e+01
2.0251433e+01 1.7805008e+01
2.0262433e+01 1.2670717e+01
2.0273433e+01 2.8160611e+01
2.0284433e+01 3.2540224e+01
2.0295433e+01 1.7849013e+01
2.0306433e+01 2.3402528e+01
2.0317433e+01 4.9309678e+01
2.0328433e+01 4.1765439e+01
2.0339433e+01 5.4223825e+01
2.0350433e+01 6.6984177e+01
2.0361433e+01 6.6203340e+01
2.0372433e+01 6.6279881e+01
2.0383433e+01 6.6173950e+01
2.0394433e+01 7.1825168e+01
2.0405433e+01 3.6802242e+01
2.0416433e+01 3.9818399e+01
2.0427433e+01 2.2348735e+01
2.0438433e+01 2.0288196e+01
2.0449433e+01 1.7467067e+01
2.0460433e+01 1.9027678e+01
2.0471433e+01 1.3055440e+01
2.0482433e+01 3.4232932e+00
2.0493433e+01 -6.2795219e-01
2.0504433e+01 4.7463722e+00
2.0515433e+01 -4.3311613e+00
2.0526433e+01 5.3213476e+00
2.0537433e+01 -1.5405443e+00
2.0548433e+01 -1.0744293e+01
2.0559433e+01 1.3375286e+00
2.0570433e+01 2.8389899e+00
2.0581433e+01 -1.0967750e+00
2.0592433e+01 2.4172491e+00
2.0603433e+01 3.3718779e+00
2.0614433e+01 1.2442325e+01
2.0625433e+01 5.1183356e+00
2.0636433e+01 3.7481196e+00
2.0647433e+01 4.5792254e+00
2.0658433e+01 -1.0221325e+01
2.0669433e+01 -9.8898811e+00
2.0680433e+01 -6.6033957e+00
2.0691433e+01 2.5728059e+00
2.0702433e+01 1.9824281e+00
2.0713433e+01 -3.8146696e+00
2.0724433e+01 1.3897588e+00
2.0735433e+01 -4.8651984e+00
2.0746433e+01 -1.2798417e+01
2.0757433e+01 -1.0305287e+01
2.0768433e+01 4.6890122e+00
2.0779433e+01 6.7431074e+00
2.0790433e+01 2.6850615e+00
2.0801433e+01 1.0082255e+01
2.0812433e+01 -2.3026052e+00
2.0823433e+01 1.3520080e+01
2.0834433e+01 -2.2381341e+00
2.0845433e+01 -2.1654978e+00
2.0856433e+01 -3.8281648e+00
2.0867433e+01 2.0289924e+00
2.0878433e+01 1.2789679e+01
2.0889433e+01 -1.6877321e-01
2.0900433e+01 -5.3052116e+00
2.0911433e+01 -2.0253972e+00
2.0922433e+01 -5.5958463e+00
2.0933433e+01 -3.4143122e+00
2.0944433e+01 7.4482330e+00
2.0955433e+01 -5.4907360e+00
2.0966433e+01 -8.9915753e-01
2.0977433e+01 3.6711073e+00
2.0988433e+01 -1.2585965e+00
