# BG ROI:  6.00000,  21.00000 
# BG Params:  20,  10,  20 

1364
5.9954332e+00 2.4076298e+02
6.0064332e+00 2.0903333e+02
6.0174332e+00 2.4329250e+02
6.0284332e+00 2.0617517e+02
6.0394332e+00 2.1689925e+02
6.0504332e+00 2.0796505e+02
6.0614332e+00 2.3651206e+02
6.0724332e+00 2.2280813e+02
6.0834332e+00 2.2494697e+02
6.0944332e+00 2.2402073e+02
6.1054332e+00 2.0261498e+02
6.1164332e+00 2.0251565e+02
6.1274332e+00 2.1342481e+02
6.1384332e+00 2.2056876e+02
6.1494332e+00 1.8919018e+02
6.1604332e+00 2.0396490e+02
6.1714332e+00 2.1179350e+02
6.1824332e+00 2.1742950e+02
6.1934332e+00 2.0237026e+02
6.2044332e+00 1.7401323e+02
6.2154332e+00 1.7089883e+02
6.2264332e+00 2.0485142e+02
6.2374332e+00 1.8806254e+02
6.2484332e+00 1.8960399e+02
6.2594332e+00 2.0184083e+02
6.2704332e+00 2.0767427e+02
6.2814332e+00 1.8220827e+02
6.2924332e+00 1.4227020e+02
6.3034332e+00 1.3751257e+02
6.3144332e+00 1.6866024e+02
6.3254332e+00 1.5525341e+02
6.3364332e+00 1.4087910e+02
6.3474332e+00 1.1628268e+02
6.3584332e+00 1.0954892e+02
6.3694332e+00 1.0810079e+02
6.3804332e+00 9.7835385e+01
6.3914332e+00 1.1520925e+02
6.4024332e+00 1.0778418e+02
6.4134332e+00 9.9581257e+01
6.4244332e+00 9.4014308e+01
6.4354332e+00 1.0451693e+02
6.4464332e+00 1.0092625e+02
6.4574332e+00 9.0967398e+01
6.4684332e+00 1.0687723e+02
6.4794332e+00 1.2485033e+02
6.4904332e+00 1.2592440e+02
6.5014332e+00 1.0552849e+02
6.5124332e+00 1.0295298e+02
6.5234332e+00 9.3745780e+01
6.5344332e+00 9.9396354e+01
6.5454332e+00 9.2024303e+01
6.5564332e+00 6.5808765e+01
6.5674332e+00 8.8897352e+01
6.5784332e+00 8.4741872e+01
6.5894332e+00 1.0895352e+02
6.6004332e+00 7.7382221e+01
6.6114332e+00 6.8253662e+01
6.6224332e+00 9.1074028e+01
6.6334332e+00 4.3695641e+01
6.6444332e+00 6.1697014e+01
6.6554332e+00 7.5031060e+01
6.6664332e+00 4.0177847e+01
6.6774332e+00 5.0333177e+01
6.6884332e+00 7.1056104e+01
6.6994332e+00 5.5456266e+01
6.7104332e+00 7.6612860e+01
6.7214332e+00 8.1618707e+01
6.7324332e+00 4.8203308e+01
6.7434332e+00 8.1292812e+01
6.7544332e+00 4.5170160e+01
6.7654332e+00 6.3501874e+01
6.7764332e+00 4.1571322e+01
6.7874332e+00 5.9816304e+01
6.7984332e+00 6.6867250e+01
6.8094332e+00 5.7056677e+01
6.8204332e+00 7.0115721e+01
6.8314332e+00 4.6232811e+01
6.8424332e+00 3.3899621e+01
6.8534332e+00 3.5120108e+01
6.8644332e+00 1.4074245e+01
6.8754332e+00 3.9820956e+01
6.8864332e+00 2.0648864e+01
6.8974332e+00 2.9490534e+01
6.9084332e+00 4.3608422e+01
6.9194332e+00 5.1584544e+01
6.9304332e+00 3.6033898e+01
6.9414332e+00 6.5175072e+01
6.9524332e+00 4.0162384e+01
6.9634332e+00 1.8813773e+01
6.9744332e+00 1.0042090e+01
6.9854332e+00 1.7808370e+01
6.9964332e+00 5.2646296e+01
7.0074332e+00 8.2766244e+00
7.0184332e+00 4.8307691e+01
7.0294332e+00 1.7534942e+01
7.0404332e+00 1.1296423e+01
7.0514332e+00 2.6976442e+01
7.0624332e+00 3.1440149e+01
7.0734332e+00 2.3838838e+01
7.0844332e+00 2.6062721e+01
7.0954332e+00 1.6888941e+01
7.1064332e+00 5.9024823e+00
7.1174332e+00 2.1068725e+01
7.1284332e+00 2.2793237e+01
7.1394332e+00 2.8980988e+01
7.1504332e+00 1.2470656e+01
7.1614332e+00 1.3166782e+01
7.1724332e+00 3.2849526e+01
7.1834332e+00 3.3208572e+01
7.1944332e+00 1.8693817e+01
7.2054332e+00 2.9853329e+01
7.2164332e+00 2.6779563e+01
7.2274332e+00 1.9989725e+01
7.2384332e+00 6.3540196e+00
7.2494332e+00 9.1419326e+00
7.2604332e+00 3.5909497e+01
7.2714332e+00 4.1529471e+01
7.2824332e+00 2.5274300e+01
7.2934332e+00 2.1267982e+01
7.3044332e+00 7.8380151e+00
7.3154332e+00 1.5979682e+01
7.3264332e+00 2.2357732e+01
7.3374332e+00 1.1327350e+01
7.3484332e+00 9.9162308e+00
7.3594332e+00 -8.7545080e+00
7.3704332e+00 1.7791310e+01
7.3814332e+00 1.8663927e+01
7.3924332e+00 2.4719642e+01
7.4034332e+00 3.1747720e+01
7.4144332e+00 2.2169814e+01
7.4254332e+00 1.7503910e+01
7.4364332e+00 3.3002022e+01
7.4474332e+00 3.0523851e+01
7.4584332e+00 1.2462571e+01
7.4694332e+00 2.1593884e+01
7.4804332e+00 -5.8759267e+00
7.4914332e+00 2.9365841e+01
7.5024332e+00 1.1410862e+01
7.5134332e+00 -1.2063813e+01
7.5244332e+00 1.2639857e+01
7.5354332e+00 3.0638762e+01
7.5464332e+00 -5.6202000e+00
7.5574332e+00 1.6699286e+01
7.5684332e+00 1.2293767e+01
7.5794332e+00 1.8568921e+01
7.5904332e+00 5.0654528e+01
7.6014332e+00 2.1100222e+01
7.6124332e+00 4.1929724e+01
7.6234332e+00 1.7288511e+01
7.6344332e+00 -6.6118829e+00
7.6454332e+00 2.4066367e+01
7.6564332e+00 7.2986649e+00
7.6674332e+00 1.0273986e+01
7.6784332e+00 1.5095602e+01
7.6894332e+00 -9.0397054e+00
7.7004332e+00 2.7745774e+01
7.7114332e+00 3.1477207e+01
7.7224332e+00 3.0509168e+01
7.7334332e+00 -1.4590281e+01
7.7444332e+00 -3.0526321e+00
7.7554332e+00 3.0687129e+01
7.7664332e+00 1.1188232e+01
7.7774332e+00 3.1806202e+01
7.7884332e+00 1.2557500e+01
7.7994332e+00 6.3257407e+00
7.8104332e+00 1.8795454e+01
7.8214332e+00 4.1931392e+01
7.8324332e+00 2.3731322e+01
7.8434332e+00 1.0662975e+01
7.8544332e+00 2.9376422e+01
7.8654332e+00 1.0467799e+01
7.8764332e+00 2.3099463e+01
7.8874332e+00 1.5614815e+01
7.8984332e+00 1.2773144e+01
7.9094332e+00 2.2090824e+01
7.9204332e+00 1.9370936e+01
7.9314332e+00 1.2598434e+01
7.9424332e+00 1.1836924e+01
7.9534332e+00 2.2134278e+01
7.9644332e+00 1.7847630e+01
7.9754332e+00 1.5104024e+01
7.9864332e+00 2.2152444e+01
7.9974332e+00 3.4498409e+01
8.0084332e+00 8.4681620e+00
8.0194332e+00 -3.0931908e-01
8.0304332e+00 1.1599744e+01
8.0414332e+00 1.3257506e+01
8.0524332e+00 2.2062881e+01
8.0634332e+00 3.1738241e+01
8.0744332e+00 1.3162855e+01
8.0854332e+00 7.9858789e+00
8.0964332e+00 2.2548147e+01
8.1074332e+00 1.8647779e+01
8.1184332e+00 5.6748546e+00
8.1294332e+00 -8.5008130e+00
8.1404332e+00 4.3467080e+00
8.1514332e+00 1.8726266e+01
8.1624332e+00 2.9862441e+00
8.1734332e+00 2.4303734e+01
8.1844332e+00 3.8482173e+01
8.1954332e+00 4.9255324e+01
8.2064332e+00 2.8602576e+01
8.2174332e+00 1.6709055e+01
8.2284332e+00 2.5381561e+01
8.2394332e+00 1.2946213e+01
8.2504332e+00 2.2176533e+01
8.2614332e+00 1.4216601e+01
8.2724332e+00 2.2141201e+00
8.2834332e+00 1.6185872e+01
8.2944332e+00 2.6744033e+01
8.3054332e+00 9.8753440e-01
8.3164332e+00 4.3059344e+00
8.3274332e+00 8.4996064e+00
8.3384332e+00 1.8640979e+01
8.3494332e+00 3.0572288e+01
8.3604332e+00 5.1820141e+00
8.3714332e+00 1.7371473e+01
8.3824332e+00 3.6860417e+01
8.3934332e+00 7.1277743e+00
8.4044332e+00 1.9079329e+01
8.4154332e+00 1.3411161e+01
8.4264332e+00 2.3512316e+01
8.4374332e+00 3.5776595e+01
8.4484332e+00 2.8693728e+01
8.4594332e+00 4.2898027e+01
8.4704332e+00 -3.5393733e-01
8.4814332e+00 8.2880818e+00
8.4924332e+00 1.6948857e+01
8.5034332e+00 2.1722857e+01
8.5144332e+00 2.0659768e+01
8.5254332e+00 1.9980352e+01
8.5364332e+00 4.3960468e+01
8.5474332e+00 -3.1084192e+00
8.5584332e+00 3.3945463e+01
8.5694332e+00 3.1624874e+01
8.5804332e+00 -2.8483411e+00
8.5914332e+00 1.6542082e+01
8.6024332e+00 4.1316673e+01
8.6134332e+00 1.7899820e+01
8.6244332e+00 1.0113507e+01
8.6354332e+00 2.0760057e+01
8.6464332e+00 3.7456391e+00
8.6574332e+00 4.9316432e+01
8.6684332e+00 4.1600819e+01
8.6794332e+00 1.5341675e+01
8.6904332e+00 5.5925306e+00
8.7014332e+00 1.1962504e+01
8.7124332e+00 2.0814893e+01
8.7234332e+00 7.8129218e+00
8.7344332e+00 3.7663151e+00
8.7454332e+00 1.8385395e+01
8.7564332e+00 1.9423921e+01
8.7674332e+00 4.5644263e+01
8.7784332e+00 1.3531799e+01
8.7894332e+00 1.4765356e+01
8.8004332e+00 2.0914199e+01
8.8114332e+00 8.6381721e+00
8.8224332e+00 1.0792100e+01
8.8334332e+00 -5.8791145e+00
8.8444332e+00 6.6475104e+00
8.8554332e+00 9.7717632e-01
8.8664332e+00 -8.0287657e+00
8.8774332e+00 1.4614849e+00
8.8884332e+00 2.4081568e+01
8.8994332e+00 2.6322644e+01
8.9104332e+00 1.8447203e+01
8.9214332e+00 7.0520530e+00
8.9324332e+00 7.5413046e+00
8.9434332e+00 1.3329807e+01
8.9544332e+00 1.8091640e+01
8.9654332e+00 2.7754384e+01
8.9764332e+00 -5.6539189e-01
8.9874332e+00 -2.0586897e-02
8.9984332e+00 1.9850250e+01
9.0094332e+00 1.5455789e+01
9.0204332e+00 9.7747536e+00
9.0314332e+00 -5.1264651e+00
9.0424332e+00 6.5623361e+00
9.0534332e+00 7.4014809e+00
9.0644332e+00 1.3734764e+01
9.0754332e+00 3.1824030e+01
9.0864332e+00 1.0226345e+01
9.0974332e+00 -7.3230395e-01
9.1084332e+00 1.6593501e+01
9.1194332e+00 1.4320219e+01
9.1304332e+00 1.4310750e+01
9.1414332e+00 3.4253794e+01
9.1524332e+00 3.9239274e+01
9.1634332e+00 2.7964842e+01
9.1744332e+00 2.4657134e+01
9.1854332e+00 2.7010773e+01
9.1964332e+00 2.5264688e+01
9.2074332e+00 3.7529016e+01
9.2184332e+00 1.5343466e+01
9.2294332e+00 4.6816081e+00
9.2404332e+00 6.0108849e+00
9.2514332e+00 1.1059409e+01
9.2624332e+00 1.5175255e+01
9.2734332e+00 1.4676999e+01
9.2844332e+00 3.1708697e+01
9.2954332e+00 3.1271748e+01
9.3064332e+00 9.1774123e+00
9.3174332e+00 1.6699050e+01
9.3284332e+00 1.4742175e+01
9.3394332e+00 2.2445510e+01
9.3504332e+00 1.5760811e+01
9.3614332e+00 2.5873965e+01
9.3724332e+00 2.7886189e+01
9.3834332e+00 1.8359962e+01
9.3944332e+00 2.5588797e+01
9.4054332e+00 3.2229024e+01
9.4164332e+00 5.0185646e-01
9.4274332e+00 1.7100610e+01
9.4384332e+00 -1.8626760e+01
9.4494332e+00 3.9686694e+01
9.4604332e+00 4.6975861e+01
9.4714332e+00 3.3487710e+01
9.4824332e+00 2.6660302e+01
9.4934332e+00 4.6589430e+01
9.5044332e+00 2.7206347e+01
9.5154332e+00 -4.0080426e+00
9.5264332e+00 3.4288267e+01
9.5374332e+00 1.1029613e+01
9.5484332e+00 2.7591973e+01
9.5594332e+00 2.0484306e+01
9.5704332e+00 1.3928842e+01
9.5814332e+00 3.6659083e+01
9.5924332e+00 4.6698659e+01
9.6034332e+00 1.6596345e+01
9.6144332e+00 1.9752773e+01
9.6254332e+00 2.8729940e+01
9.6364332e+00 3.2203839e+01
9.6474332e+00 3.2252489e+00
9.6584332e+00 1.2875176e+01
9.6694332e+00 5.8681272e+00
9.6804332e+00 2.8872643e+01
9.6914332e+00 1.3700071e+01
9.7024332e+00 1.0323843e+01
9.7134332e+00 1.8754818e+01
9.7244332e+00 2.2566709e+01
9.7354332e+00 6.6500859e+00
9.7464332e+00 3.4923132e+01
9.7574332e+00 2.0684011e+01
9.7684332e+00 2.2221245e+01
9.7794332e+00 2.5784167e+01
9.7904332e+00 3.7256302e+01
9.8014332e+00 3.6819015e+01
9.8124332e+00 5.0604794e+00
9.8234332e+00 7.0044068e-01
9.8344332e+00 1.9464064e+01
9.8454332e+00 2.3154224e+01
9.8564332e+00 1.3760738e+01
9.8674332e+00 3.8062830e+01
9.8784332e+00 5.0386906e+01
9.8894332e+00 3.2579753e+01
9.9004332e+00 2.6469256e+01
9.9114332e+00 2.3613970e+01
9.9224332e+00 1.7792683e+01
9.9334332e+00 6.3289387e+00
9.9444332e+00 1.3600394e+01
9.9554332e+00 1.7745615e+01
9.9664332e+00 2.6245115e+01
9.9774332e+00 2.9009792e+01
9.9884332e+00 2.9946919e+01
9.9994332e+00 2.4121762e+01
1.0010433e+01 1.3450422e+01
1.0021433e+01 2.0061189e+01
1.0032433e+01 2.2504705e+01
1.0043433e+01 2.5545083e+01
1.0054433e+01 1.0983167e+01
1.0065433e+01 2.1253687e+00
1.0076433e+01 7.2991014e+00
1.0087433e+01 -9.1976931e+00
1.0098433e+01 1.8572207e+01
1.0109433e+01 7.7049727e+00
1.0120433e+01 2.7759905e+01
1.0131433e+01 2.4437373e+01
1.0142433e+01 2.6004058e+01
1.0153433e+01 7.7017583e+00
1.0164433e+01 2.6915102e+01
1.0175433e+01 2.4204408e+01
1.0186433e+01 1.1767472e+01
1.0197433e+01 3.7832632e+00
1.0208433e+01 9.2139589e-01
1.0219433e+01 -6.7296038e+00
1.0230433e+01 2.3712349e+01
1.0241433e+01 2.1507719e+01
1.0252433e+01 3.6560809e+01
1.0263433e+01 2.4443302e+01
1.0274433e+01 3.4009790e+01
1.0285433e+01 2.0331006e+01
1.0296433e+01 1.8778240e+01
1.0307433e+01 2.3551561e+01
1.0318433e+01 -3.0791197e+00
1.0329433e+01 2.7494486e+01
1.0340433e+01 1.0160626e+01
1.0351433e+01 2.2189387e+01
1.0362433e+01 9.9855708e-01
1.0373433e+01 1.9797711e+01
1.0384433e+01 1.7098565e+01
1.0395433e+01 2.7682363e+01
1.0406433e+01 8.4238280e+00
1.0417433e+01 1.2103124e+01
1.0428433e+01 5.6421438e+00
1.0439433e+01 8.0954583e+00
1.0450433e+01 2.3610509e+01
1.0461433e+01 8.9114951e-02
1.0472433e+01 1.1481517e+01
1.0483433e+01 2.0995694e+01
1.0494433e+01 1.0941444e+01
1.0505433e+01 5.0030836e+00
1.0516433e+01 -7.2307991e+00
1.0527433e+01 8.9186518e+00
1.0538433e+01 8.7017519e+00
1.0549433e+01 8.3825161e+00
1.0560433e+01 1.3983049e+01
1.0571433e+01 1.8702483e+01
1.0582433e+01 2.4110123e+01
1.0593433e+01 1.7511831e+01
1.0604433e+01 2.1671549e+01
1.0615433e+01 2.4273708e+01
1.0626433e+01 3.7597478e+01
1.0637433e+01 2.5170961e+01
1.0648433e+01 2.3036936e+01
1.0659433e+01 3.3782832e+01
1.0670433e+01 2.0598467e+01
1.0681433e+01 8.1417311e+00
1.0692433e+01 1.8002451e+01
1.0703433e+01 9.8749136e+00
1.0714433e+01 4.6971664e+00
1.0725433e+01 1.2091596e+01
1.0736433e+01 1.3679627e+01
1.0747433e+01 1.2021777e+01
1.0758433e+01 2.9142590e+01
1.0769433e+01 2.7856151e+01
1.0780433e+01 8.2068641e+00
1.0791433e+01 8.9822044e+00
1.0802433e+01 2.3872053e+00
1.0813433e+01 2.1202190e+01
1.0824433e+01 5.5916153e+01
1.0835433e+01 3.0603386e+01
1.0846433e+01 3.9145215e+00
1.0857433e+01 -2.4560169e+00
1.0868433e+01 7.2043325e+00
1.0879433e+01 2.5991282e+01
1.0890433e+01 2.1271173e+01
1.0901433e+01 2.3544038e+01
1.0912433e+01 2.1840758e+01
1.0923433e+01 2.2089135e+01
1.0934433e+01 1.8458689e+01
1.0945433e+01 7.4671829e+00
1.0956433e+01 8.1657266e+00
1.0967433e+01 1.7380241e+01
1.0978433e+01 6.7508183e+00
1.0989433e+01 2.7937583e+00
1.1000433e+01 1.3963822e+00
1.1011433e+01 1.8816861e+01
1.1022433e+01 2.6091452e+00
1.1033433e+01 9.0620061e+00
1.1044433e+01 1.4757854e+01
1.1055433e+01 1.7939161e+01
1.1066433e+01 3.3714547e+01
1.1077433e+01 3.3471874e+01
1.1088433e+01 2.6741172e+01
1.1099433e+01 -2.0547974e+00
1.1110433e+01 3.7604748e+01
1.1121433e+01 4.3787685e+00
1.1132433e+01 2.6452164e+00
1.1143433e+01 1.7748983e+01
1.1154433e+01 1.1445251e+01
1.1165433e+01 1.1172622e+01
1.1176433e+01 -2.0026025e+00
1.1187433e+01 1.4714641e+01
1.1198433e+01 1.0260304e+01
1.1209433e+01 8.9029203e+00
1.1220433e+01 2.5970382e+01
1.1231433e+01 1.7537844e+01
1.1242433e+01 1.6270587e+01
1.1253433e+01 8.5230173e+00
1.1264433e+01 3.1360077e+01
1.1275433e+01 8.7285918e+00
1.1286433e+01 2.4318385e+01
1.1297433e+01 5.2685401e+01
1.1308433e+01 1.4464046e+01
1.1319433e+01 2.2460405e+01
1.1330433e+01 -6.0284078e+00
1.1341433e+01 3.1892145e+00
1.1352433e+01 5.3385576e+00
1.1363433e+01 4.7266978e+01
1.1374433e+01 3.3789522e+00
1.1385433e+01 2.1655507e+01
1.1396433e+01 1.1660190e+01
1.1407433e+01 6.1127586e+00
1.1418433e+01 2.3153270e+01
1.1429433e+01 2.7628874e+01
1.1440433e+01 2.1917087e+01
1.1451433e+01 -3.4627717e+00
1.1462433e+01 1.1908018e+01
1.1473433e+01 2.5587014e+01
1.1484433e+01 2.1312716e+01
1.1495433e+01 1.1875605e+01
1.1506433e+01 -1.0497019e+01
1.1517433e+01 1.0506314e+01
1.1528433e+01 1.0756495e+01
1.1539433e+01 1.5257795e+01
1.1550433e+01 5.5113955e+00
1.1561433e+01 2.8550028e+01
1.1572433e+01 2.7988845e+01
1.1583433e+01 1.1759498e+01
1.1594433e+01 8.5985494e+00
1.1605433e+01 2.1030873e+01
1.1616433e+01 8.2223706e+00
1.1627433e+01 2.1413356e+01
1.1638433e+01 3.1043314e+01
1.1649433e+01 1.9081846e+01
1.1660433e+01 7.7973976e+00
1.1671433e+01 1.7198813e+01
1.1682433e+01 2.8521506e+01
1.1693433e+01 1.5334412e+01
1.1704433e+01 2.1447295e+01
1.1715433e+01 3.4566502e+01
1.1726433e+01 3.7796916e+01
1.1737433e+01 3.1195924e+01
1.1748433e+01 1.1400842e+01
1.1759433e+01 4.9937045e+00
1.1770433e+01 7.3328662e-02
1.1781433e+01 2.4986605e+00
1.1792433e+01 2.1913736e+01
1.1803433e+01 2.4687223e+01
1.1814433e+01 1.8326146e+01
1.1825433e+01 2.2614604e+01
1.1836433e+01 2.5126342e+01
1.1847433e+01 1.3901198e+01
1.1858433e+01 3.1637890e+01
1.1869433e+01 4.3411464e+01
1.1880433e+01 2.6139947e+01
1.1891433e+01 2.4541687e+01
1.1902433e+01 1.2563442e+01
1.1913433e+01 1.3693089e+01
1.1924433e+01 3.4156195e+01
1.1935433e+01 3.1051559e+01
1.1946433e+01 3.9154637e+01
1.1957433e+01 3.5244548e+01
1.1968433e+01 1.6642918e+01
1.1979433e+01 3.9869977e+01
1.1990433e+01 3.5162490e+01
1.2001433e+01 5.1948437e+01
1.2012433e+01 2.5752664e+01
1.2023433e+01 2.6276509e+01
1.2034433e+01 2.4229230e+01
1.2045433e+01 2.0281995e+01
1.2056433e+01 2.6877299e+01
1.2067433e+01 1.8150802e+01
1.2078433e+01 1.7954580e+01
1.2089433e+01 9.9134606e+00
1.2100433e+01 2.2241391e+01
1.2111433e+01 2.2413697e+01
1.2122433e+01 2.6263307e+01
1.2133433e+01 1.3049757e+01
1.2144433e+01 1.8515504e+01
1.2155433e+01 1.8753904e+01
1.2166433e+01 4.8446235e+00
1.2177433e+01 -1.1297107e+00
1.2188433e+01 -7.0260429e+00
1.2199433e+01 -9.5420071e+00
1.2210433e+01 -2.4588377e+00
1.2221433e+01 -1.3196789e+01
1.2232433e+01 2.2695295e+01
1.2243433e+01 1.3983568e+01
1.2254433e+01 1.8444736e+01
1.2265433e+01 1.8872384e+01
1.2276433e+01 3.3850467e+01
1.2287433e+01 1.9391919e+01
1.2298433e+01 1.6185453e+01
1.2309433e+01 1.6811705e+01
1.2320433e+01 1.8876428e+01
1.2331433e+01 3.4285125e+01
1.2342433e+01 2.2652951e+01
1.2353433e+01 1.0051167e+01
1.2364433e+01 7.7393775e+00
1.2375433e+01 1.8248495e+01
1.2386433e+01 1.8546631e+01
1.2397433e+01 2.6248798e+01
1.2408433e+01 2.6484279e+01
1.2419433e+01 1.6494595e+01
1.2430433e+01 3.3424097e+01
1.2441433e+01 3.3313267e+01
1.2452433e+01 3.3727855e+01
1.2463433e+01 1.8825834e+01
1.2474433e+01 2.0404482e+01
1.2485433e+01 2.0348910e+01
1.2496433e+01 3.0007019e+01
1.2507433e+01 9.9925382e+00
1.2518433e+01 5.2902168e+00
1.2529433e+01 2.6874904e+01
1.2540433e+01 4.0810470e+01
1.2551433e+01 2.8491332e+01
1.2562433e+01 3.4339340e+01
1.2573433e+01 6.3121292e+01
1.2584433e+01 4.9652845e+01
1.2595433e+01 4.4280868e+01
1.2606433e+01 5.6890419e+01
1.2617433e+01 4.4823474e+01
1.2628433e+01 5.6354282e+01
1.2639433e+01 7.7564399e+01
1.2650433e+01 9.5880602e+01
1.2661433e+01 8.3140597e+01
1.2672433e+01 5.3838121e+01
1.2683433e+01 5.5986891e+01
1.2694433e+01 6.3315411e+01
1.2705433e+01 5.1725418e+01
1.2716433e+01 4.0374768e+01
1.2727433e+01 2.9612946e+01
1.2738433e+01 1.2703497e+01
1.2749433e+01 1.1192187e+01
1.2760433e+01 3.0692509e+01
1.2771433e+01 2.2219140e+01
1.2782433e+01 3.2873574e+01
1.2793433e+01 3.1513955e+01
1.2804433e+01 1.4577527e+01
1.2815433e+01 9.5288555e+00
1.2826433e+01 1.6272024e+01
1.2837433e+01 2.0216566e+01
1.2848433e+01 2.7678136e+01
1.2859433e+01 2.1364648e+01
1.2870433e+01 2.9235875e+01
1.2881433e+01 2.3277911e+01
1.2892433e+01 -6.4575502e+00
1.2903433e+01 2.8513884e+01
1.2914433e+01 5.5399185e+00
1.2925433e+01 9.6416253e+00
1.2936433e+01 -3.9758119e+00
1.2947433e+01 1.3733050e+01
1.2958433e+01 1.9377175e+01
1.2969433e+01 2.1605126e+01
1.2980433e+01 -8.7814483e-01
1.2991433e+01 2.7455527e+01
1.3002433e+01 1.6977074e+01
1.3013433e+01 2.5642970e+01
1.3024433e+01 2.0491407e+01
1.3035433e+01 1.2560800e+01
1.3046433e+01 -2.3430988e+00
1.3057433e+01 2.5010140e+00
1.3068433e+01 1.4724322e+01
1.3079433e+01 2.7083918e+01
1.3090433e+01 2.8497672e-01
1.3101433e+01 1.5278151e+01
1.3112433e+01 2.3187374e+01
1.3123433e+01 1.1741341e+01
1.3134433e+01 2.0702954e+01
1.3145433e+01 1.6584578e+01
1.3156433e+01 2.0933377e+01
1.3167433e+01 2.7450915e+01
1.3178433e+01 3.1090427e+01
1.3189433e+01 7.4524067e+00
1.3200433e+01 2.9249389e+01
1.3211433e+01 -3.7011121e+00
1.3222433e+01 2.2253869e+01
1.3233433e+01 -2.8720222e+00
1.3244433e+01 1.6801479e+01
1.3255433e+01 1.9880637e+01
1.3266433e+01 1.1885094e+00
1.3277433e+01 5.7471058e-01
1.3288433e+01 3.0081697e+01
1.3299433e+01 1.1102714e+01
1.3310433e+01 2.4592139e+01
1.3321433e+01 5.3791788e+00
1.3332433e+01 1.0015289e+01
1.3343433e+01 1.2491627e+01
1.3354433e+01 6.0634204e+00
1.3365433e+01 4.4223362e+00
1.3376433e+01 -8.2437976e+00
1.3387433e+01 -1.8227434e+00
1.3398433e+01 2.8987497e+01
1.3409433e+01 1.3645962e+01
1.3420433e+01 3.9770211e+00
1.3431433e+01 3.0883319e+00
1.3442433e+01 8.6038040e+00
1.3453433e+01 2.0557347e+01
1.3464433e+01 3.6608750e+01
1.3475433e+01 2.3806093e+01
1.3486433e+01 7.1467069e+00
1.3497433e+01 2.4042311e+01
1.3508433e+01 1.8735827e+01
1.3519433e+01 1.3501735e+01
1.3530433e+01 1.7796117e+01
1.3541433e+01 1.8656444e+01
1.3552433e+01 8.3820372e+00
1.3563433e+01 -3.0215808e+00
1.3574433e+01 5.9411122e+00
1.3585433e+01 1.0302498e+01
1.3596433e+01 1.9691031e+01
1.3607433e+01 1.6972833e+01
1.3618433e+01 1.7298527e+01
1.3629433e+01 2.0228437e+01
1.3640433e+01 2.0213976e+01
1.3651433e+01 2.1951290e+01
1.3662433e+01 2.2693571e+01
1.3673433e+01 2.6183715e+01
1.3684433e+01 2.2238806e+01
1.3695433e+01 2.7691749e+01
1.3706433e+01 3.6000200e+01
1.3717433e+01 3.5802824e+01
1.3728433e+01 4.5522976e+01
1.3739433e+01 2.8633023e+01
1.3750433e+01 2.1417791e+01
1.3761433e+01 3.2247254e+00
1.3772433e+01 5.4728634e+00
1.3783433e+01 1.5451162e+01
1.3794433e+01 1.9601731e-01
1.3805433e+01 9.8117972e+00
1.3816433e+01 1.7615469e+01
1.3827433e+01 1.2600689e+01
1.3838433e+01 2.0357507e+01
1.3849433e+01 2.7009739e+01
1.3860433e+01 2.5986133e+01
1.3871433e+01 1.1326028e+01
1.3882433e+01 2.2752213e+01
1.3893433e+01 7.1829243e+00
1.3904433e+01 -2.4912981e+00
1.3915433e+01 2.9551064e+01
1.3926433e+01 4.9735297e+00
1.3937433e+01 4.5339887e+01
1.3948433e+01 3.5376365e+00
1.3959433e+01 1.2265306e+01
1.3970433e+01 1.0622024e+01
1.3981433e+01 2.7295082e+01
1.3992433e+01 2.4897177e+01
1.4003433e+01 3.4139119e+01
1.4014433e+01 1.0345548e+01
1.4025433e+01 8.6992833e+00
1.4036433e+01 2.0013934e+01
1.4047433e+01 4.1170890e+00
1.4058433e+01 8.6812186e+00
1.4069433e+01 1.5298282e+01
1.4080433e+01 1.2282489e+01
1.4091433e+01 1.1409098e+01
1.4102433e+01 -2.9220091e-01
1.4113433e+01 3.5656152e+01
1.4124433e+01 1.6474705e+01
1.4135433e+01 3.1678836e-01
1.4146433e+01 2.9493808e+00
1.4157433e+01 1.8346761e+01
1.4168433e+01 -1.9598308e+00
1.4179433e+01 4.1002932e+00
1.4190433e+01 1.9647482e+01
1.4201433e+01 7.8102748e+00
1.4212433e+01 6.8834896e+00
1.4223433e+01 -5.3628348e+00
1.4234433e+01 1.9542897e+00
1.4245433e+01 2.1017611e+01
1.4256433e+01 1.5334198e+01
1.4267433e+01 1.2488568e+01
1.4278433e+01 2.6635598e+01
1.4289433e+01 3.8747157e+01
1.4300433e+01 2.3810660e+01
1.4311433e+01 1.6162286e+01
1.4322433e+01 1.3643772e+01
1.4333433e+01 2.6201043e+01
1.4344433e+01 3.0533096e+01
1.4355433e+01 2.0841748e+01
1.4366433e+01 1.8693164e+01
1.4377433e+01 1.6509320e+01
1.4388433e+01 1.3081152e+01
1.4399433e+01 2.8763342e+00
1.4410433e+01 5.4892120e+00
1.4421433e+01 5.8228899e+00
1.4432433e+01 1.0524982e+01
1.4443433e+01 1.7030463e+01
1.4454433e+01 2.2209146e+01
1.4465433e+01 1.5846105e+01
1.4476433e+01 1.1813152e+01
1.4487433e+01 8.2443716e+00
1.4498433e+01 8.6988749e+00
1.4509433e+01 1.3753265e+01
1.4520433e+01 1.8738973e+01
1.4531433e+01 1.9713970e+01
1.4542433e+01 1.3805139e+01
1.4553433e+01 9.1039296e+00
1.4564433e+01 2.4506123e+01
1.4575433e+01 1.4887688e+01
1.4586433e+01 1.9266086e+01
1.4597433e+01 1.1406536e+01
1.4608433e+01 1.3682418e+01
1.4619433e+01 5.3005290e+00
1.4630433e+01 9.0378286e+00
1.4641433e+01 6.9443149e+00
1.4652433e+01 6.3804555e+00
1.4663433e+01 6.6564378e+00
1.4674433e+01 2.1984679e+01
1.4685433e+01 -4.4294642e+00
1.4696433e+01 2.1131154e+01
1.4707433e+01 2.2834261e+01
1.4718433e+01 6.5803013e+00
1.4729433e+01 1.6104281e+01
1.4740433e+01 6.6376038e+00
1.4751433e+01 2.2899736e+01
1.4762433e+01 2.2451920e+01
1.4773433e+01 2.2214642e+01
1.4784433e+01 2.0417454e+01
1.4795433e+01 -5.0267196e+00
1.4806433e+01 1.3361643e+01
1.4817433e+01 1.3476586e+01
1.4828433e+01 4.6677701e+01
1.4839433e+01 1.3954390e+01
1.4850433e+01 3.0598004e+01
1.4861433e+01 6.9860461e+00
1.4872433e+01 3.2450227e+01
1.4883433e+01 5.9621277e+01
1.4894433e+01 2.9289997e+01
1.4905433e+01 1.9945927e+01
1.4916433e+01 3.3647908e+01
1.4927433e+01 6.1307397e+00
1.4938433e+01 1.7765821e+01
1.4949433e+01 1.4785342e+01
1.4960433e+01 1.3409042e+01
1.4971433e+01 1.9653039e+01
1.4982433e+01 4.6192526e+00
1.4993433e+01 1.1862591e+01
1.5004433e+01 1.2333002e+01
1.5015433e+01 2.2203375e+01
1.5026433e+01 1.9335876e+00
1.5037433e+01 -2.9676229e+00
1.5048433e+01 4.1737515e+00
1.5059433e+01 1.2017008e+01
1.5070433e+01 1.9731745e+01
1.5081433e+01 1.6166030e+01
1.5092433e+01 7.1955383e+00
1.5103433e+01 2.6829388e+00
1.5114433e+01 -6.2314020e+00
1.5125433e+01 1.7694513e+01
1.5136433e+01 1.1577511e+01
1.5147433e+01 1.7116008e+01
1.5158433e+01 1.2818462e+01
1.5169433e+01 2.4351530e+01
1.5180433e+01 3.2606818e+01
1.5191433e+01 1.5042903e+01
1.5202433e+01 2.9885142e+01
1.5213433e+01 2.6240223e+01
1.5224433e+01 1.0984442e+01
1.5235433e+01 8.4951557e+00
1.5246433e+01 1.4607823e+00
1.5257433e+01 1.7140787e+00
1.5268433e+01 1.0492552e+01
1.5279433e+01 1.7884081e+01
1.5290433e+01 1.4755551e+01
1.5301433e+01 2.0863532e+01
1.5312433e+01 1.7082591e+01
1.5323433e+01 1.8964986e+01
1.5334433e+01 1.3886575e+01
1.5345433e+01 5.8815277e+00
1.5356433e+01 1.4144852e+01
1.5367433e+01 1.0580647e+01
1.5378433e+01 2.7578973e+01
1.5389433e+01 3.5952177e+01
1.5400433e+01 2.1387831e+01
1.5411433e+01 1.0879975e+01
1.5422433e+01 2.1106078e+01
1.5433433e+01 3.3570461e+01
1.5444433e+01 1.1820325e+01
1.5455433e+01 6.8780024e+00
1.5466433e+01 1.3920224e+01
1.5477433e+01 9.9067410e+00
1.5488433e+01 1.7541167e+01
1.5499433e+01 3.1025454e+01
1.5510433e+01 1.9131946e+01
1.5521433e+01 3.9123957e+00
1.5532433e+01 2.9891574e+00
1.5543433e+01 4.5116255e+00
1.5554433e+01 -7.0354252e+00
1.5565433e+01 1.4587060e+01
1.5576433e+01 -8.3827617e+00
1.5587433e+01 1.1238894e+01
1.5598433e+01 1.6066686e+01
1.5609433e+01 2.2722759e+01
1.5620433e+01 1.7077702e+01
1.5631433e+01 1.8613912e+01
1.5642433e+01 1.3710860e+01
1.5653433e+01 -4.9028375e+00
1.5664433e+01 1.3100370e+01
1.5675433e+01 1.3262064e+01
1.5686433e+01 3.2759913e+01
1.5697433e+01 2.2795820e+01
1.5708433e+01 1.9306025e+01
1.5719433e+01 3.2808682e+01
1.5730433e+01 1.0604563e+01
1.5741433e+01 8.2621913e+00
1.5752433e+01 1.8293261e+01
1.5763433e+01 2.0070917e+01
1.5774433e+01 9.9118939e+00
1.5785433e+01 2.6479727e+01
1.5796433e+01 9.3366033e+00
1.5807433e+01 2.5517219e+01
1.5818433e+01 2.6410571e+01
1.5829433e+01 1.4658278e+01
1.5840433e+01 8.6040178e+00
1.5851433e+01 1.5948259e+01
1.5862433e+01 2.9759325e+00
1.5873433e+01 3.7037207e+01
1.5884433e+01 2.2959883e+01
1.5895433e+01 2.0798313e+01
1.5906433e+01 -1.3459258e-01
1.5917433e+01 9.9544588e+00
1.5928433e+01 6.3148800e+00
1.5939433e+01 1.5567941e+00
1.5950433e+01 2.7160849e+00
1.5961433e+01 1.0207247e+01
1.5972433e+01 1.5997234e+01
1.5983433e+01 3.3296732e+00
1.5994433e+01 1.5281039e+01
1.6005433e+01 1.6124767e+01
1.6016433e+01 1.3692856e+01
1.6027433e+01 2.1321371e+01
1.6038433e+01 5.6742801e+00
1.6049433e+01 1.4917732e+01
1.6060433e+01 3.0080975e+01
1.6071433e+01 1.4675757e+01
1.6082433e+01 2.9588269e+01
1.6093433e+01 3.4887799e+01
1.6104433e+01 2.1074587e+01
1.6115433e+01 2.1998575e+01
1.6126433e+01 1.4757052e+01
1.6137433e+01 8.9006911e-01
1.6148433e+01 4.6039685e+00
1.6159433e+01 5.2439412e+00
1.6170433e+01 9.9413293e+00
1.6181433e+01 2.5470445e+01
1.6192433e+01 2.6720610e+01
1.6203433e+01 1.7724978e+01
1.6214433e+01 2.4548851e+01
1.6225433e+01 1.7311632e+01
1.6236433e+01 1.5073574e+01
1.6247433e+01 1.2635781e+01
1.6258433e+01 9.9100363e+00
1.6269433e+01 6.7181929e+00
1.6280433e+01 1.6713365e+01
1.6291433e+01 7.8303951e+00
1.6302433e+01 4.4851082e+00
1.6313433e+01 2.2473248e+01
1.6324433e+01 9.7018670e+00
1.6335433e+01 2.1871910e+01
1.6346433e+01 2.3703721e+01
1.6357433e+01 1.5368733e+01
1.6368433e+01 8.9199395e+00
1.6379433e+01 4.6759742e+00
1.6390433e+01 1.1743070e+01
1.6401433e+01 1.8484021e+01
1.6412433e+01 1.6094559e+01
1.6423433e+01 1.4073258e+01
1.6434433e+01 -1.0043080e+01
1.6445433e+01 1.4155866e+01
1.6456433e+01 2.7626951e+01
1.6467433e+01 1.0299114e+01
1.6478433e+01 5.8764981e+00
1.6489433e+01 6.7188639e+00
1.6500433e+01 1.7027872e+01
1.6511433e+01 1.5483893e+01
1.6522433e+01 1.7528058e+01
1.6533433e+01 2.3220804e+01
1.6544433e+01 -2.8513972e+00
1.6555433e+01 2.7469572e+01
1.6566433e+01 2.1797869e+01
1.6577433e+01 2.0992242e+01
1.6588433e+01 6.8711294e+00
1.6599433e+01 6.9798963e+00
1.6610433e+01 3.1219199e+01
1.6621433e+01 -7.1132064e+00
1.6632433e+01 2.9880143e+00
1.6643433e+01 5.0957855e+00
1.6654433e+01 4.1852008e+00
1.6665433e+01 8.2842629e+00
1.6676433e+01 1.4102444e+01
1.6687433e+01 3.4593876e+01
1.6698433e+01 6.4722495e+00
1.6709433e+01 1.0623774e+01
1.6720433e+01 1.5800720e+01
1.6731433e+01 2.0878224e+01
1.6742433e+01 1.7772746e+01
1.6753433e+01 2.0708422e+01
1.6764433e+01 1.5536837e+01
1.6775433e+01 1.2067248e+01
1.6786433e+01 2.2250919e+01
1.6797433e+01 2.4527893e+01
1.6808433e+01 1.3425264e+01
1.6819433e+01 6.3353721e+00
1.6830433e+01 1.3564410e+01
1.6841433e+01 1.2023456e+01
1.6852433e+01 7.8231712e+00
1.6863433e+01 1.7667053e+01
1.6874433e+01 2.6277159e+01
1.6885433e+01 3.5904451e+00
1.6896433e+01 1.3216178e+01
1.6907433e+01 1.7509541e+01
1.6918433e+01 2.5892159e+01
1.6929433e+01 1.7501914e+01
1.6940433e+01 1.4226478e+01
1.6951433e+01 8.1398828e+00
1.6962433e+01 2.7244197e+01
1.6973433e+01 2.3346481e+01
1.6984433e+01 2.1368442e+01
1.6995433e+01 2.0582967e+01
1.7006433e+01 1.9595704e+01
1.7017433e+01 1.1377156e+01
1.7028433e+01 8.9760594e+00
1.7039433e+01 1.0579527e+01
1.7050433e+01 2.3617031e+01
1.7061433e+01 2.8175115e+01
1.7072433e+01 2.1520337e+01
1.7083433e+01 3.1149190e+01
1.7094433e+01 8.9016421e+00
1.7105433e+01 5.6637213e+00
1.7116433e+01 2.7404176e+01
1.7127433e+01 1.9923872e+01
1.7138433e+01 1.1994456e+01
1.7149433e+01 1.9201163e+01
1.7160433e+01 9.3488674e+00
1.7171433e+01 1.2917033e+01
1.7182433e+01 1.6247573e+01
1.7193433e+01 1.0063350e+01
1.7204433e+01 1.1999506e+01
1.7215433e+01 2.0704950e+01
1.7226433e+01 2.4989365e+01
1.7237433e+01 1.5379289e+01
1.7248433e+01 7.7346425e+00
1.7259433e+01 2.3616033e+00
1.7270433e+01 -7.1739699e+00
1.7281433e+01 -6.7791195e+00
1.7292433e+01 2.7507772e+01
1.7303433e+01 2.8638231e+01
1.7314433e+01 3.0096374e+01
1.7325433e+01 2.4222138e+01
1.7336433e+01 2.5056438e+01
1.7347433e+01 -8.3820861e-02
1.7358433e+01 1.7954537e+01
1.7369433e+01 2.8203048e+01
1.7380433e+01 2.2568965e+01
1.7391433e+01 -1.4231971e+00
1.7402433e+01 1.4758627e+01
1.7413433e+01 -1.5083580e+00
1.7424433e+01 1.2086422e+01
1.7435433e+01 1.2713221e+01
1.7446433e+01 1.7056554e+01
1.7457433e+01 1.2129075e+01
1.7468433e+01 3.3369002e+00
1.7479433e+01 7.4174832e+00
1.7490433e+01 2.5841729e+01
1.7501433e+01 2.2029394e+01
1.7512433e+01 2.3849333e+01
1.7523433e+01 1.8032462e+01
1.7534433e+01 2.8006577e+01
1.7545433e+01 3.1901306e+01
1.7556433e+01 1.8385915e+01
1.7567433e+01 2.8483262e+01
1.7578433e+01 1.0665536e+01
1.7589433e+01 1.8365115e+01
1.7600433e+01 4.5507079e+00
1.7611433e+01 8.7501961e+00
1.7622433e+01 2.0593740e+01
1.7633433e+01 -1.5555091e+00
1.7644433e+01 2.9181002e+01
1.7655433e+01 1.7553825e+01
1.7666433e+01 6.2374354e+00
1.7677433e+01 1.5187428e+01
1.7688433e+01 1.0821748e+01
1.7699433e+01 5.7973037e+00
1.7710433e+01 2.6343962e+01
1.7721433e+01 3.4958343e+01
1.7732433e+01 2.5225055e+01
1.7743433e+01 1.7310732e+01
1.7754433e+01 2.0477805e+01
1.7765433e+01 1.6501188e+01
1.7776433e+01 1.6671336e+01
1.7787433e+01 2.6131152e+00
1.7798433e+01 -1.0954926e+01
1.7809433e+01 1.7971120e+01
1.7820433e+01 3.2573657e+00
1.7831433e+01 1.7284513e+00
1.7842433e+01 2.9177271e+01
1.7853433e+01 1.7622238e+01
1.7864433e+01 2.5000291e+01
1.7875433e+01 8.7500055e+00
1.7886433e+01 1.8125172e+01
1.7897433e+01 9.8432513e+00
1.7908433e+01 4.1019557e+00
1.7919433e+01 1.1512749e+01
1.7930433e+01 9.9621079e+00
1.7941433e+01 8.9412788e+00
1.7952433e+01 -9.8305900e-01
1.7963433e+01 8.2440952e+00
1.7974433e+01 2.0741534e+01
1.7985433e+01 1.9562621e+01
1.7996433e+01 2.7726932e+01
1.8007433e+01 1.6248125e+01
1.8018433e+01 1.4101538e+01
1.8029433e+01 2.3776853e+01
1.8040433e+01 1.5806422e+01
1.8051433e+01 2.5854819e+01
1.8062433e+01 1.6155071e+01
1.8073433e+01 2.1163344e+00
1.8084433e+01 1.0648309e+01
1.8095433e+01 1.3882356e+01
1.8106433e+01 1.2870167e+01
1.8117433e+01 1.0555238e+01
1.8128433e+01 1.4812253e+01
1.8139433e+01 1.0748830e+01
1.8150433e+01 1.4378909e+01
1.8161433e+01 1.7496900e+01
1.8172433e+01 1.5355124e+01
1.8183433e+01 5.7908565e+00
1.8194433e+01 3.9551513e+00
1.8205433e+01 8.2211252e+00
1.8216433e+01 1.1752576e+01
1.8227433e+01 3.1743932e+00
1.8238433e+01 6.7418970e+00
1.8249433e+01 1.1638409e+01
1.8260433e+01 -1.3459567e+00
1.8271433e+01 1.3533873e+01
1.8282433e+01 2.4936514e+01
1.8293433e+01 1.4543522e+01
1.8304433e+01 -4.9748433e-01
1.8315433e+01 1.4835212e+01
1.8326433e+01 7.6535617e+00
1.8337433e+01 1.3547834e+01
1.8348433e+01 3.4564396e+00
1.8359433e+01 2.6311321e+01
1.8370433e+01 1.0609269e+01
1.8381433e+01 8.3944384e+00
1.8392433e+01 1.1207521e+01
1.8403433e+01 2.7824442e+01
1.8414433e+01 2.6353834e+01
1.8425433e+01 3.9249693e+01
1.8436433e+01 9.4116718e+00
1.8447433e+01 2.2753247e+01
1.8458433e+01 -3.9326880e+00
1.8469433e+01 1.9607272e+01
1.8480433e+01 2.5504103e+01
1.8491433e+01 1.1812997e+01
1.8502433e+01 6.1873702e+00
1.8513433e+01 1.4147815e+01
1.8524433e+01 -5.9612043e+00
1.8535433e+01 3.1345244e+00
1.8546433e+01 2.3656243e+01
1.8557433e+01 1.8886383e+01
1.8568433e+01 1.7251216e+01
1.8579433e+01 2.0994079e+01
1.8590433e+01 2.0264173e+01
1.8601433e+01 3.9493344e+01
1.8612433e+01 1.5958558e+01
1.8623433e+01 5.1221631e+01
1.8634433e+01 3.9287475e+01
1.8645433e+01 2.3012983e+01
1.8656433e+01 1.6203015e+01
1.8667433e+01 2.0590629e+01
1.8678433e+01 2.5380863e+01
1.8689433e+01 1.6717840e+01
1.8700433e+01 1.1014735e+01
1.8711433e+01 2.8377459e+01
1.8722433e+01 2.8190819e+01
1.8733433e+01 3.4596222e+01
1.8744433e+01 2.0602183e+01
1.8755433e+01 7.1827524e+00
1.8766433e+01 1.3531021e+01
1.8777433e+01 1.1269904e+01
1.8788433e+01 5.0741956e+00
1.8799433e+01 1.5911178e+01
1.8810433e+01 8.7333079e+00
1.8821433e+01 4.2678520e+00
1.8832433e+01 7.9246422e+00
1.8843433e+01 8.2918579e+00
1.8854433e+01 1.6989375e+01
1.8865433e+01 1.8823968e+01
1.8876433e+01 1.0335515e+01
1.8887433e+01 1.0016693e+01
1.8898433e+01 9.1800050e+00
1.8909433e+01 9.9672412e+00
1.8920433e+01 1.5064038e+01
1.8931433e+01 2.5899747e+01
1.8942433e+01 1.4723838e+01
1.8953433e+01 1.9160167e+01
1.8964433e+01 2.8756836e+01
1.8975433e+01 9.5652323e+00
1.8986433e+01 1.3419271e+01
1.8997433e+01 1.2693174e+01
1.9008433e+01 1.6351368e+01
1.9019433e+01 1.2831576e+01
1.9030433e+01 2.5271198e+01
1.9041433e+01 2.1292751e+01
1.9052433e+01 1.6391106e+01
1.9063433e+01 2.1754803e+01
1.9074433e+01 1.5981597e+01
1.9085433e+01 2.0337059e+01
1.9096433e+01 1.7906477e+01
1.9107433e+01 1.6230725e+01
1.9118433e+01 1.5573174e+01
1.9129433e+01 6.0753209e+00
1.9140433e+01 9.9225296e+00
1.9151433e+01 1.8136721e+01
1.9162433e+01 2.2259131e+01
1.9173433e+01 1.5443534e+01
1.9184433e+01 1.3197281e+01
1.9195433e+01 3.0269509e+01
1.9206433e+01 3.2413184e+01
1.9217433e+01 2.1841685e+01
1.9228433e+01 1.6954634e+01
1.9239433e+01 -1.1397185e+01
1.9250433e+01 -1.2397528e+01
1.9261433e+01 -2.9013022e-02
1.9272433e+01 3.1141928e+01
1.9283433e+01 2.1691223e+01
1.9294433e+01 1.5462675e+01
1.9305433e+01 2.2229879e+01
1.9316433e+01 7.0843334e-01
1.9327433e+01 1.2621149e+01
1.9338433e+01 1.1515854e+01
1.9349433e+01 -2.7779845e+00
1.9360433e+01 9.6242182e+00
1.9371433e+01 1.3606974e+00
1.9382433e+01 6.4095572e+00
1.9393433e+01 9.9447611e+00
1.9404433e+01 1.7533472e+01
1.9415433e+01 1.7340764e+01
1.9426433e+01 7.6881392e+00
1.9437433e+01 1.8039442e+01
1.9448433e+01 3.0287765e+01
1.9459433e+01 1.3399424e+01
1.9470433e+01 4.0504534e+01
1.9481433e+01 2.0783342e+01
1.9492433e+01 1.9524695e+01
1.9503433e+01 3.5187364e+01
1.9514433e+01 9.0067299e+00
1.9525433e+01 1.3170986e+01
1.9536433e+01 -6.3425236e-01
1.9547433e+01 1.4966173e+01
1.9558433e+01 1.2140444e+01
1.9569433e+01 1.3231034e+00
1.9580433e+01 2.2258683e+00
1.9591433e+01 1.6350139e+01
1.9602433e+01 3.2348540e+01
1.9613433e+01 1.4455178e+01
1.9624433e+01 4.5653851e+00
1.9635433e+01 2.5584748e+01
1.9646433e+01 2.1253357e+01
1.9657433e+01 1.8274736e+01
1.9668433e+01 1.8767017e+01
1.9679433e+01 5.7781543e+00
1.9690433e+01 2.8933179e+00
1.9701433e+01 6.0807838e+00
1.9712433e+01 2.4342123e+01
1.9723433e+01 2.7273394e+01
1.9734433e+01 1.9432919e+01
1.9745433e+01 7.0391362e+00
1.9756433e+01 1.5192172e+01
1.9767433e+01 2.5991239e+01
1.9778433e+01 2.1416733e+01
1.9789433e+01 2.1716531e+01
1.9800433e+01 3.5972073e+01
1.9811433e+01 4.3989667e+01
1.9822433e+01 3.4409469e+01
1.9833433e+01 2.0702550e+01
1.9844433e+01 1.9832518e+01
1.9855433e+01 1.6377459e+01
1.9866433e+01 1.7706796e+01
1.9877433e+01 1.9973317e+01
1.9888433e+01 2.4820249e+01
1.9899433e+01 1.5891565e+01
1.9910433e+01 1.4915163e+01
1.9921433e+01 2.5289161e+01
1.9932433e+01 1.9375960e+01
1.9943433e+01 4.9365201e+01
1.9954433e+01 2.1803529e+01
1.9965433e+01 1.3654065e+01
1.9976433e+01 9.5317264e+00
1.9987433e+01 9.4074768e+00
1.9998433e+01 9.5939546e+00
2.0009433e+01 4.6537638e+00
2.0020433e+01 -1.0853987e+01
2.0031433e+01 2.3978865e+00
2.0042433e+01 3.5781031e+01
2.0053433e+01 2.0888799e+00
2.0064433e+01 2.0776538e+01
2.0075433e+01 7.2632136e+00
2.0086433e+01 1.4492120e+01
2.0097433e+01 1.6237802e+00
2.0108433e+01 1.1428062e+01
2.0119433e+01 1.3924032e+01
2.0130433e+01 1.4800771e+01
2.0141433e+01 2.1150349e+01
2.0152433e+01 1.7924185e+01
2.0163433e+01 1.5607770e+01
2.0174433e+01 1.5338853e+01
2.0185433e+01 3.3465722e+01
2.0196433e+01 5.8039525e+00
2.0207433e+01 1.0818659e+01
2.0218433e+01 1.4747141e+01
2.0229433e+01 2.5065177e+00
2.0240433e+01 -6.0607590e+00
2.0251433e+01 1.4090920e+01
2.0262433e+01 7.7229191e+00
2.0273433e+01 -6.3955412e-01
2.0284433e+01 3.9813328e+00
2.0295433e+01 -4.6820043e+00
2.0306433e+01 1.9766853e+01
2.0317433e+01 -1.1351303e+01
2.0328433e+01 1.8382220e+01
2.0339433e+01 -9.5572421e+00
2.0350433e+01 3.2387008e+01
2.0361433e+01 4.8501191e+00
2.0372433e+01 2.8562010e+01
2.0383433e+01 1.4945041e+01
2.0394433e+01 2.3478345e+01
2.0405433e+01 2.9069012e+01
2.0416433e+01 1.9009287e+01
2.0427433e+01 1.9848555e+01
2.0438433e+01 9.5488088e-01
2.0449433e+01 3.5580734e+00
2.0460433e+01 5.5461931e+00
2.0471433e+01 1.0852104e+01
2.0482433e+01 -6.4559871e+00
2.0493433e+01 2.1593636e+00
2.0504433e+01 -3.4250856e+00
2.0515433e+01 3.2818018e+00
2.0526433e+01 2.1868741e+01
2.0537433e+01 1.4018257e+01
2.0548433e+01 4.4649203e+00
2.0559433e+01 1.3049223e+01
2.0570433e+01 1.2348286e+01
2.0581433e+01 1.6514416e+00
2.0592433e+01 3.1776727e+00
2.0603433e+01 7.6754804e+00
2.0614433e+01 1.6619616e+01
2.0625433e+01 1.0157774e+01
2.0636433e+01 -1.8923902e+00
2.0647433e+01 -1.4833110e+01
2.0658433e+01 -1.3337238e+01
2.0669433e+01 -4.3344335e+00
2.0680433e+01 1.1152258e+00
2.0691433e+01 1.2275050e+01
2.0702433e+01 1.5453092e+01
2.0713433e+01 5.0535131e-01
2.0724433e+01 -3.9716750e+00
2.0735433e+01 -1.0551868e+01
2.0746433e+01 -1.1835989e+01
2.0757433e+01 -5.6317100e+00
2.0768433e+01 1.0773991e+01
2.0779433e+01 -2.1785730e+00
2.0790433e+01 -1.1943431e+01
2.0801433e+01 -9.2142716e+00
2.0812433e+01 -1.0011705e+00
2.0823433e+01 9.7260781e+00
2.0834433e+01 -6.9937735e+00
2.0845433e+01 6.9554013e+00
2.0856433e+01 1.3307082e+01
2.0867433e+01 -6.2267986e+00
2.0878433e+01 -1.3843784e+01
2.0889433e+01 -8.8150814e+00
2.0900433e+01 -4.6847475e+00
2.0911433e+01 -3.8440742e+00
2.0922433e+01 -3.6815215e+00
2.0933433e+01 4.5004102e+00
2.0944433e+01 2.5407490e+01
2.0955433e+01 1.3259293e+00
2.0966433e+01 -9.5336591e+00
2.0977433e+01 6.8484884e+00
2.0988433e+01 -3.3061591e+00
